mode	ox/red	error	control changes	time/s	control/V	Ewe/V	<I>/mA	(Q-Qo)/C	I Range	P/W	
2	0	0	0	4.378803921141662E+002	-1.2598430E+000	-1.2553819E+000	-4.265081082752777E+002	-2.3884452E-003	37	5.3543055E-001
2	0	0	1	4.378987921137013E+002	-1.2580098E+000	-1.2595277E+000	-6.469603814739648E+002	-1.4362182E-002	37	8.1486452E-001
2	0	0	1	4.379321921128576E+002	-1.2546697E+000	-1.2566494E+000	-6.205321400684752E+002	-3.5482701E-002	37	7.7979136E-001
2	0	0	1	4.379653921120189E+002	-1.2513491E+000	-1.2517228E+000	-6.022179250900863E+002	-5.5754889E-002	37	7.5380993E-001
2	0	0	1	4.379987921111751E+002	-1.2480086E+000	-1.2479142E+000	-5.843419949354957E+002	-7.5546265E-002	37	7.2920865E-001
2	0	0	1	4.380321921103314E+002	-1.2446684E+000	-1.2450054E+000	-5.670389703800101E+002	-9.4750106E-002	37	7.0596659E-001
2	0	0	1	4.380653921094927E+002	-1.2413480E+000	-1.2431831E+000	-5.498338209279391E+002	-1.1326688E-001	37	6.8354416E-001
2	0	0	1	4.380987921086489E+002	-1.2380074E+000	-1.2383918E+000	-5.329959577249592E+002	-1.3132687E-001	37	6.6005778E-001
2	0	0	1	4.381321921078052E+002	-1.2346672E+000	-1.2364380E+000	-5.165889165009348E+002	-1.4883213E-001	37	6.3873017E-001
2	0	0	1	4.381653921069665E+002	-1.2313467E+000	-1.2308416E+000	-5.007518066695898E+002	-1.6569801E-001	37	6.1634618E-001
2	0	0	1	4.381987921061227E+002	-1.2280062E+000	-1.2270453E+000	-4.854131602025918E+002	-1.8214490E-001	37	5.9562391E-001
2	0	0	1	4.382321921052790E+002	-1.2246659E+000	-1.2245060E+000	-4.702375034459455E+002	-1.9808213E-001	37	5.7580864E-001
2	0	0	1	4.382653921044403E+002	-1.2213455E+000	-1.2218566E+000	-4.559308740255558E+002	-2.1343537E-001	37	5.5708212E-001
2	0	0	1	4.382987921035965E+002	-1.2180051E+000	-1.2187263E+000	-4.419554896418267E+002	-2.2840890E-001	37	5.3862280E-001
2	0	0	1	4.383321921027527E+002	-1.2146646E+000	-1.2152297E+000	-4.285020197727035E+002	-2.4292524E-001	37	5.2072841E-001
2	0	0	1	4.383653921019140E+002	-1.2113442E+000	-1.2122003E+000	-4.155039245824464E+002	-2.5691587E-001	37	5.0367397E-001
2	0	0	1	4.383987921010703E+002	-1.2080039E+000	-1.2095839E+000	-4.029807964572183E+002	-2.7056554E-001	37	4.8743907E-001
2	0	0	1	4.384321921002265E+002	-1.2046635E+000	-1.2047714E+000	-3.906712772941601E+002	-2.8380078E-001	37	4.7066957E-001
2	0	0	1	4.384655920993828E+002	-1.2013297E+000	-1.2031765E+000	-3.785259184356973E+002	-2.9662728E-001	37	4.5543349E-001
2	0	0	1	4.384987920985441E+002	-1.1980093E+000	-1.1993494E+000	-3.666586665457276E+002	-3.0897862E-001	37	4.3975186E-001
2	0	0	1	4.385321920977003E+002	-1.1946689E+000	-1.1964252E+000	-3.550233809266247E+002	-3.2101211E-001	37	4.2475891E-001
2	0	0	1	4.385655920968566E+002	-1.1913284E+000	-1.1926264E+000	-3.434925621795664E+002	-3.3265883E-001	37	4.0965828E-001
2	0	0	1	4.385987920960179E+002	-1.1880081E+000	-1.1872257E+000	-3.322023865275905E+002	-3.4385693E-001	37	3.9439920E-001
2	0	0	1	4.386321920951741E+002	-1.1846676E+000	-1.1854433E+000	-3.211764892027122E+002	-3.5475081E-001	37	3.8073650E-001
2	0	0	1	4.386655920943304E+002	-1.1813273E+000	-1.1826073E+000	-3.103503947593545E+002	-3.6527911E-001	37	3.6702263E-001
2	0	0	1	4.386987920934916E+002	-1.1780069E+000	-1.1802176E+000	-2.995553859357483E+002	-3.7538555E-001	37	3.5354054E-001
2	0	0	1	4.387321920926479E+002	-1.1746665E+000	-1.1764942E+000	-2.887765026827228E+002	-3.8519281E-001	37	3.3974388E-001
2	0	0	1	4.387655920918041E+002	-1.1713260E+000	-1.1717395E+000	-2.782489970945430E+002	-3.9464456E-001	37	3.2603532E-001
2	0	0	1	4.387987920909654E+002	-1.1680057E+000	-1.1682316E+000	-2.678923051403185E+002	-4.0369287E-001	37	3.1296027E-001
2	0	0	1	4.388321920901217E+002	-1.1646651E+000	-1.1645334E+000	-2.574988363015200E+002	-4.1244945E-001	37	2.9986599E-001
2	0	0	1	4.388655920892779E+002	-1.1613249E+000	-1.1617131E+000	-2.473208201436646E+002	-4.2086244E-001	37	2.8731585E-001
2	0	0	1	4.388987920884392E+002	-1.1580044E+000	-1.1605300E+000	-2.371613619875031E+002	-4.2888770E-001	37	2.7523288E-001
2	0	0	1	4.389321920875955E+002	-1.1546640E+000	-1.1564641E+000	-2.271621162354509E+002	-4.3662503E-001	37	2.6270482E-001
2	0	0	1	4.389655920867517E+002	-1.1513236E+000	-1.1510504E+000	-2.171330644052987E+002	-4.4402790E-001	37	2.4993111E-001
2	0	0	1	4.389988920859105E+002	-1.1479987E+000	-1.1490787E+000	-2.073481243581255E+002	-4.5107803E-001	37	2.3825932E-001
2	0	0	1	4.390321920850693E+002	-1.1446695E+000	-1.1458763E+000	-1.977458326979037E+002	-4.5780674E-001	37	2.2659226E-001
2	0	0	1	4.390655920842255E+002	-1.1413291E+000	-1.1429820E+000	-1.881928390587703E+002	-4.6423516E-001	37	2.1510103E-001
2	0	0	1	4.390989920833817E+002	-1.1379887E+000	-1.1383069E+000	-1.787715578873951E+002	-4.7034627E-001	37	2.0349689E-001
2	0	0	1	4.391321920825430E+002	-1.1346684E+000	-1.1358860E+000	-1.695391345289017E+002	-4.7611144E-001	37	1.9257712E-001
2	0	0	1	4.391655920816993E+002	-1.1313279E+000	-1.1307544E+000	-1.603517368828807E+002	-4.8160407E-001	37	1.8131842E-001
2	0	0	1	4.391989920808555E+002	-1.1279875E+000	-1.1280751E+000	-1.513576949617594E+002	-4.8679352E-001	37	1.7074285E-001
2	0	0	1	4.392321920800168E+002	-1.1246672E+000	-1.1256539E+000	-1.425231277310399E+002	-4.9165556E-001	37	1.6043171E-001
2	0	0	1	4.392655920791731E+002	-1.1213267E+000	-1.1221139E+000	-1.337854901917776E+002	-4.9625358E-001	37	1.5012257E-001
2	0	0	1	4.392989920783293E+002	-1.1179863E+000	-1.1196812E+000	-1.251250929004173E+002	-5.0056124E-001	37	1.4010023E-001
2	0	0	1	4.393321920774906E+002	-1.1146659E+000	-1.1146288E+000	-1.166936166058642E+002	-5.0455946E-001	37	1.3007006E-001
2	0	0	1	4.393655920766469E+002	-1.1113254E+000	-1.1126664E+000	-1.083025818775316E+002	-5.0830132E-001	37	1.2050464E-001
2	0	0	1	4.393989920758031E+002	-1.1079850E+000	-1.1091684E+000	-1.001206499377005E+002	-5.1176631E-001	37	1.1105067E-001
2	0	0	1	4.394321920749644E+002	-1.1046646E+000	-1.1059897E+000	-9.208453388549653E+001	-5.1494080E-001	37	1.0184455E-001
2	0	0	1	4.394655920741207E+002	-1.1013242E+000	-1.1038332E+000	-8.408899636303943E+001	-5.1786691E-001	37	9.2820227E-002
2	0	0	1	4.394989920732769E+002	-1.0979837E+000	-1.0988835E+000	-7.623943697947016E+001	-5.2052891E-001	37	8.3778262E-002
2	0	0	1	4.395321920724382E+002	-1.0946634E+000	-1.0956907E+000	-6.852028937595878E+001	-5.2291697E-001	37	7.5077042E-002
2	0	0	1	4.395655920715944E+002	-1.0913298E+000	-1.0912439E+000	-6.092573968322176E+001	-5.2506375E-001	37	6.6484839E-002
2	0	0	1	4.395989920707507E+002	-1.0879893E+000	-1.0873641E+000	-5.346860152880339E+001	-5.2695912E-001	37	5.8139838E-002
2	0	0	1	4.396323920699069E+002	-1.0846488E+000	-1.0850629E+000	-4.606648020744331E+001	-5.2860659E-001	37	4.9985025E-002
2	0	0	1	4.396805920686893E+002	-1.0798281E+000	-1.0798730E+000	-3.566670047305229E+001	-5.3054404E-001	37	3.8515504E-002
2	0	0	1	4.397289920674666E+002	-1.0749878E+000	-1.0753998E+000	-2.517948540029695E+001	-5.3213108E-001	38	2.7078012E-002
2	0	0	1	4.397623920666229E+002	-1.0716473E+000	-1.0744883E+000	-1.816404866600476E+001	-5.3284103E-001	38	1.9517057E-002
2	0	0	1	4.397955920657841E+002	-1.0683270E+000	-1.0667506E+000	-1.119256538053355E+001	-5.3331459E-001	38	1.1939676E-002
2	0	0	1	4.398289920649404E+002	-1.0649866E+000	-1.0683856E+000	-4.303265971880819E+000	-5.3355950E-001	38	4.5975475E-003
2	0	0	1	4.398623920640966E+002	-1.0616461E+000	-1.0622362E+000	2.492745658649064E+000	-5.3357607E-001	38	-2.6478847E-003
2	1	0	1	4.398955920632579E+002	-1.0583258E+000	-1.0585905E+000	9.149920389045150E+000	-5.3336960E-001	38	-9.6860193E-003
2	1	0	1	4.399289920624142E+002	-1.0549853E+000	-1.0558010E+000	1.579664897717816E+001	-5.3293961E-001	38	-1.6678119E-002
2	1	0	1	4.399623920615704E+002	-1.0516449E+000	-1.0512431E+000	2.237399196642423E+001	-5.3228885E-001	38	-2.3520503E-002
2	1	0	1	4.399955920607317E+002	-1.0483245E+000	-1.0505190E+000	2.884773276805890E+001	-5.3142565E-001	38	-3.0305091E-002
2	1	0	1	4.400289920598880E+002	-1.0449842E+000	-1.0461099E+000	3.524727224429432E+001	-5.3034216E-001	38	-3.6872521E-002
2	1	0	1	4.400623920590442E+002	-1.0416436E+000	-1.0420074E+000	4.168523893232714E+001	-5.2904457E-001	38	-4.3436330E-002
2	1	0	1	4.400956920582030E+002	-1.0383167E+000	-1.0387729E+000	4.807883083680001E+001	-5.2753663E-001	38	-4.9942989E-002
2	1	0	1	4.401289920573618E+002	-1.0349895E+000	-1.0360724E+000	5.450302722754304E+001	-5.2581596E-001	38	-5.6469079E-002
2	1	0	1	4.401623920565180E+002	-1.0316491E+000	-1.0321376E+000	6.092139898247206E+001	-5.2387536E-001	38	-6.2879272E-002
2	1	0	1	4.401957920556742E+002	-1.0283087E+000	-1.0289744E+000	6.734866704349179E+001	-5.2172023E-001	38	-6.9300056E-002
2	1	0	1	4.402289920548355E+002	-1.0249883E+000	-1.0246431E+000	7.382949773143849E+001	-5.1936364E-001	38	-7.5648881E-002
2	1	0	1	4.402623920539918E+002	-1.0216479E+000	-1.0227391E+000	8.035694501841544E+001	-5.1677567E-001	38	-8.2184188E-002
2	1	0	1	4.402957920531480E+002	-1.0183076E+000	-1.0194838E+000	8.711867900565812E+001	-5.1396561E-001	38	-8.8816084E-002
2	1	0	1	4.403289920523093E+002	-1.0149872E+000	-1.0157030E+000	9.403763575077051E+001	-5.1094496E-001	38	-9.5514305E-002
2	1	0	1	4.403623920514656E+002	-1.0116467E+000	-1.0129172E+000	1.011701164298586E+002	-5.0767142E-001	38	-1.0247695E-001
2	1	0	1	4.404107920502429E+002	-1.0068061E+000	-1.0065731E+000	1.113475369347291E+002	-5.0247920E-001	38	-1.1207943E-001
2	1	0	1	4.404589920490253E+002	-1.0019857E+000	-1.0033810E+000	1.208734499712349E+002	-4.9697080E-001	37	-1.2128212E-001
2	1	0	1	4.404923920481815E+002	-9.9864519E-001	-9.9853653E-001	1.271105529456670E+002	-4.9281546E-001	37	-1.2692453E-001
2	1	0	1	4.405257920473377E+002	-9.9530476E-001	-9.9410433E-001	1.324978642377145E+002	-4.8846722E-001	37	-1.3171670E-001
2	1	0	1	4.405589920464990E+002	-9.9198431E-001	-9.9222505E-001	1.356395179843908E+002	-4.8400471E-001	37	-1.3458493E-001
2	1	0	1	4.405923920456553E+002	-9.8864394E-001	-9.8873442E-001	1.348018375815293E+002	-4.7949225E-001	37	-1.3328321E-001
2	1	0	1	4.406257920448115E+002	-9.8530358E-001	-9.8542142E-001	1.496040790778619E+002	-4.7472182E-001	37	-1.4742306E-001
2	1	0	1	4.406590920439703E+002	-9.8197645E-001	-9.8192322E-001	1.602805686428583E+002	-4.6954146E-001	37	-1.5738322E-001
2	1	0	1	4.406923920431291E+002	-9.7864944E-001	-9.7929680E-001	1.681317080511867E+002	-4.6405706E-001	37	-1.6465084E-001
2	1	0	1	4.407257920422853E+002	-9.7530901E-001	-9.7486448E-001	1.752819028398724E+002	-4.5830688E-001	37	-1.7087610E-001
2	1	0	1	4.407591920414416E+002	-9.7196859E-001	-9.7207868E-001	1.824935633048306E+002	-4.5231745E-001	37	-1.7739810E-001
2	1	0	1	4.407923920406029E+002	-9.6864831E-001	-9.6792591E-001	1.898227862813742E+002	-4.4612253E-001	37	-1.8373439E-001
2	1	0	1	4.408257920397591E+002	-9.6530783E-001	-9.6547347E-001	1.974903772661432E+002	-4.3963957E-001	37	-1.9067173E-001
2	1	0	1	4.408591920389154E+002	-9.6196741E-001	-9.6224266E-001	2.050737438671687E+002	-4.3290272E-001	37	-1.9733070E-001
2	1	0	1	4.408923920380767E+002	-9.5864707E-001	-9.6005309E-001	2.126232752927146E+002	-4.2595449E-001	37	-2.0412964E-001
2	1	0	1	4.409257920372329E+002	-9.5530659E-001	-9.5495951E-001	2.202146260141435E+002	-4.1871065E-001	37	-2.1029605E-001
2	1	0	1	4.409591920363891E+002	-9.5196623E-001	-9.5083457E-001	2.277511045943365E+002	-4.1121501E-001	37	-2.1655363E-001
2	1	0	1	4.409773920359294E+002	-9.5013905E-001	-9.5069528E-001	2.315971736907959E+002	-4.0705058E-001	37	-2.2017834E-001