mode	ox/red	error	control changes	time/s	control/V	Ewe/V	<I>/mA	(Q-Qo)/C	I Range	<Ece>/V	P/W	Ewe-Ece/V	
2	1	0	0	1.530057985763415E+002	-9.5025247E-001	-9.4927204E-001	3.127476575297692E+001	1.0602882E-003	38	-1.1050371E+000	-2.9688261E-002	1.5576506E-001
2	1	0	1	1.531891985717084E+002	-9.5208693E-001	-9.5283914E-001	2.621794469610643E+001	5.9423628E-003	38	-1.0938692E+000	-2.4981484E-002	1.4103007E-001
2	1	0	1	1.535225985632860E+002	-9.5542073E-001	-9.5543689E-001	1.915880766920220E+001	1.3370105E-002	38	-1.0743154E+000	-1.8305032E-002	1.1887854E-001
2	1	0	1	1.538558985548661E+002	-9.5875371E-001	-9.5920366E-001	1.369920326607854E+001	1.8730218E-002	38	-1.0516586E+000	-1.3140326E-002	9.2454970E-002
2	1	0	1	1.541891985464463E+002	-9.6208680E-001	-9.6266091E-001	9.242073709464819E+000	2.2449883E-002	38	-1.0220901E+000	-8.8969832E-003	5.9429169E-002
2	1	0	1	1.545392985376020E+002	-9.6558785E-001	-9.6554637E-001	5.296503123126321E+000	2.4863200E-002	38	-9.7745669E-001	-5.1140194E-003	1.1910319E-002
2	1	0	1	1.548893985287577E+002	-9.6908885E-001	-9.6889466E-001	1.891384674280879E+000	2.6051208E-002	39	-9.1667682E-001	-1.8325525E-003	-5.2217841E-002
2	1	0	1	1.552227985203353E+002	-9.7242266E-001	-9.7307473E-001	-9.571610492738767E-001	2.6121888E-002	39	-8.4534055E-001	9.3138922E-004	-1.2773418E-001
2	0	0	1	1.555560985119155E+002	-9.7575587E-001	-9.7565073E-001	-3.526002614875626E+000	2.5292911E-002	39	-7.7466458E-001	3.4401470E-003	-2.0098615E-001
2	0	0	1	1.558893985034956E+002	-9.7908872E-001	-9.7954202E-001	-5.855018419351623E+000	2.3650076E-002	39	-7.1527725E-001	5.7352367E-003	-2.6426476E-001
2	0	0	1	1.562227984950732E+002	-9.8242271E-001	-9.8296136E-001	-8.030757933461627E+000	2.1257211E-002	39	-6.6036111E-001	7.8939246E-003	-3.2260025E-001
2	0	0	1	1.565728984862290E+002	-9.8592395E-001	-9.8594344E-001	-1.006811416448316E+001	1.7988760E-002	39	-5.1607549E-001	9.9265911E-003	-4.6986794E-001
2	0	0	1	1.569229984773847E+002	-9.8942459E-001	-9.8984390E-001	-1.211596170952240E+001	1.4038351E-002	38	-8.8367134E-002	1.1992911E-002	-9.0147674E-001
2	0	0	1	1.572562984689648E+002	-9.9275786E-001	-9.9218625E-001	-1.408151247310497E+001	9.5958114E-003	38	2.4556805E-001	1.3971483E-002	-1.2377543E+000
2	0	0	1	1.575895984605449E+002	-9.9609065E-001	-9.9708408E-001	-1.595382672949211E+001	4.5162248E-003	38	4.0159351E-001	1.5907306E-002	-1.3986776E+000
2	0	0	1	1.579229984521226E+002	-9.9942464E-001	-9.9851847E-001	-1.755871989638507E+001	-1.1386160E-003	38	4.2735693E-001	1.7532706E-002	-1.4258754E+000
2	0	0	1	1.582563984437002E+002	-1.0027587E+000	-1.0038308E+000	-1.948691188989231E+001	-7.3863734E-003	38	4.3333635E-001	1.9561563E-002	-1.4371672E+000
2	0	0	1	1.585897984352778E+002	-1.0060928E+000	-1.0052686E+000	-2.137152505889438E+001	-1.4270003E-002	38	4.3822095E-001	2.1484122E-002	-1.4434896E+000
2	0	0	1	1.589231984268554E+002	-1.0094270E+000	-1.0073076E+000	-2.329385327593485E+001	-2.1788053E-002	38	4.4342634E-001	2.3464076E-002	-1.4507340E+000
2	0	0	1	1.592564984184355E+002	-1.0127598E+000	-1.0126008E+000	-2.527161459571880E+001	-2.9955162E-002	38	4.5031390E-001	2.5590057E-002	-1.4629147E+000
2	0	0	1	1.595898984100131E+002	-1.0160940E+000	-1.0152872E+000	-2.717051011099704E+001	-3.8773187E-002	38	4.6509334E-001	2.7585870E-002	-1.4803805E+000
2	0	0	1	1.599231984015933E+002	-1.0194267E+000	-1.0197380E+000	-2.845721840426054E+001	-4.8114207E-002	38	5.0339979E-001	2.9018905E-002	-1.5231378E+000
2	0	0	1	1.602565983931709E+002	-1.0227607E+000	-1.0237929E+000	-3.029224407635902E+001	-5.7975132E-002	38	5.4201609E-001	3.1012984E-002	-1.5658090E+000
2	0	0	1	1.605899983847485E+002	-1.0260949E+000	-1.0257885E+000	-3.210069768079620E+001	-6.8449929E-002	38	5.5161828E-001	3.2928526E-002	-1.5774069E+000
2	0	0	1	1.609233983763261E+002	-1.0294287E+000	-1.0300698E+000	-3.369784541349297E+001	-7.9487041E-002	38	5.5507046E-001	3.4711134E-002	-1.5851402E+000
2	0	0	1	1.612567983679037E+002	-1.0327629E+000	-1.0344768E+000	-3.526993816324455E+001	-9.1051266E-002	38	5.5759352E-001	3.6485933E-002	-1.5920703E+000
2	0	0	1	1.615901983594813E+002	-1.0360966E+000	-1.0348657E+000	-3.687309773489301E+001	-1.0314520E-001	38	5.5946201E-001	3.8158707E-002	-1.5943277E+000
2	0	0	1	1.619234983510614E+002	-1.0394297E+000	-1.0397429E+000	-3.853571803378372E+001	-1.1577965E-001	38	5.6141162E-001	4.0067241E-002	-1.6011546E+000
2	0	0	1	1.622567983426416E+002	-1.0427628E+000	-1.0432193E+000	-4.028589985844729E+001	-1.2898399E-001	38	5.6318980E-001	4.2027030E-002	-1.6064091E+000
2	0	0	1	1.625901983342192E+002	-1.0460967E+000	-1.0474545E+000	-4.216110240456640E+001	-1.4279893E-001	38	5.6491506E-001	4.4161834E-002	-1.6123695E+000
2	0	0	1	1.629235983257968E+002	-1.0494308E+000	-1.0488805E+000	-4.422276429283920E+001	-1.5727082E-001	38	5.6649041E-001	4.6384394E-002	-1.6153709E+000
2	0	0	1	1.632569983173744E+002	-1.0527645E+000	-1.0535542E+000	-4.647900655088313E+001	-1.7246318E-001	38	5.6842375E-001	4.8968151E-002	-1.6219779E+000
2	0	0	1	1.635903983089520E+002	-1.0560989E+000	-1.0541691E+000	-4.900041070366603E+001	-1.8845293E-001	38	5.7025105E-001	5.1654715E-002	-1.6244202E+000
2	0	0	1	1.639237983005296E+002	-1.0594326E+000	-1.0585175E+000	-5.182115060567730E+001	-2.0533694E-001	38	5.7191354E-001	5.4853592E-002	-1.6304309E+000
2	0	0	1	1.642570982921097E+002	-1.0627660E+000	-1.0628654E+000	-5.486286142790559E+001	-2.2319472E-001	38	5.7409495E-001	5.8311835E-002	-1.6369603E+000
2	0	0	1	1.645903982836899E+002	-1.0660987E+000	-1.0676984E+000	-5.802728989781474E+001	-2.4208727E-001	38	5.7603812E-001	6.1955642E-002	-1.6437365E+000
2	0	0	1	1.649237982752675E+002	-1.0694325E+000	-1.0694618E+000	-6.132925590980710E+001	-2.6206574E-001	38	5.7802844E-001	6.5589301E-002	-1.6474903E+000
2	0	0	1	1.652571982668451E+002	-1.0727668E+000	-1.0725923E+000	-6.458743840316470E+001	-2.8313729E-001	38	5.7988435E-001	6.9275990E-002	-1.6524765E+000
2	0	0	1	1.655905982584227E+002	-1.0761007E+000	-1.0764917E+000	-6.782545439225092E+001	-3.0529147E-001	38	5.8198196E-001	7.3013537E-002	-1.6584737E+000
2	0	0	1	1.659239982500003E+002	-1.0794351E+000	-1.0805759E+000	-7.106041007032570E+001	-3.2852384E-001	38	5.8374333E-001	7.6786168E-002	-1.6643193E+000
2	0	0	1	1.662573982415779E+002	-1.0827688E+000	-1.0822489E+000	-7.418474846525669E+001	-3.5281497E-001	38	5.8511609E-001	8.0286361E-002	-1.6673651E+000
2	0	0	1	1.665906982331580E+002	-1.0861018E+000	-1.0860358E+000	-7.691763273200542E+001	-3.7807411E-001	38	5.8678639E-001	8.3535306E-002	-1.6728222E+000
2	0	0	1	1.669239982247382E+002	-1.0894347E+000	-1.0902282E+000	-7.895854681909623E+001	-4.0412262E-001	38	5.8772171E-001	8.6082831E-002	-1.6779499E+000
2	0	0	1	1.672573982163158E+002	-1.0927687E+000	-1.0937781E+000	-8.011162771190629E+001	-4.3070388E-001	38	5.8848417E-001	8.7624349E-002	-1.6822623E+000
2	0	0	1	1.675907982078934E+002	-1.0961030E+000	-1.0961688E+000	-8.044386607514525E+001	-4.5752364E-001	38	5.8902884E-001	8.8180050E-002	-1.6851976E+000
2	0	0	1	1.679241981994710E+002	-1.0994366E+000	-1.0990194E+000	-8.033836509400544E+001	-4.8437420E-001	38	5.8883148E-001	8.8293426E-002	-1.6878510E+000
2	0	0	1	1.682575981910486E+002	-1.1027708E+000	-1.1039009E+000	-8.008634489596898E+001	-5.1116204E-001	38	5.8883935E-001	8.8407390E-002	-1.6927402E+000
2	0	0	1	1.685909981826262E+002	-1.1061046E+000	-1.1066103E+000	-7.988770235243851E+001	-5.3787333E-001	38	5.8876550E-001	8.8404551E-002	-1.6953758E+000
2	0	0	1	1.689242981742063E+002	-1.1094377E+000	-1.1096238E+000	-7.973478128315537E+001	-5.6452000E-001	38	5.8865613E-001	8.8475607E-002	-1.6982799E+000
2	0	0	1	1.692575981657865E+002	-1.1127708E+000	-1.1130064E+000	-7.970917527431131E+001	-5.9113550E-001	38	5.8905596E-001	8.8716820E-002	-1.7020624E+000
2	0	0	1	1.695909981573641E+002	-1.1161048E+000	-1.1171416E+000	-8.007756846033089E+001	-6.1781925E-001	38	5.8896154E-001	8.9457981E-002	-1.7061031E+000
2	0	0	1	1.699243981489417E+002	-1.1194386E+000	-1.1200700E+000	-8.075376421423766E+001	-6.4468133E-001	38	5.8925885E-001	9.0449870E-002	-1.7093289E+000
2	0	0	1	1.702577981405193E+002	-1.1227726E+000	-1.1239007E+000	-8.175570572313848E+001	-6.7182410E-001	38	5.8954519E-001	9.1885291E-002	-1.7134459E+000
2	0	0	1	1.705911981320969E+002	-1.1261067E+000	-1.1271923E+000	-8.313589360788342E+001	-6.9936812E-001	38	5.9046131E-001	9.3710139E-002	-1.7176535E+000
2	0	0	1	1.709245981236745E+002	-1.1294408E+000	-1.1295459E+000	-8.488722839623199E+001	-7.2743869E-001	38	5.9139234E-001	9.5884025E-002	-1.7209382E+000
2	0	0	1	1.712578981152546E+002	-1.1327739E+000	-1.1328644E+000	-8.677845111272109E+001	-7.5611043E-001	38	5.9226263E-001	9.8308213E-002	-1.7251270E+000
2	0	0	1	1.715911981068348E+002	-1.1361068E+000	-1.1367234E+000	-8.895259186594387E+001	-7.8545892E-001	38	5.9291130E-001	1.0111449E-001	-1.7296348E+000
2	0	0	1	1.719245980984124E+002	-1.1394405E+000	-1.1393985E+000	-9.128250265313557E+001	-8.1556976E-001	38	5.9420669E-001	1.0400714E-001	-1.7336051E+000
2	0	0	1	1.722579980899900E+002	-1.1427751E+000	-1.1421194E+000	-9.376578667554202E+001	-8.4648269E-001	38	5.9519750E-001	1.0709172E-001	-1.7373168E+000
2	0	0	1	1.725913980815676E+002	-1.1461086E+000	-1.1457398E+000	-9.655048118456352E+001	-8.7827635E-001	38	5.9637201E-001	1.1062173E-001	-1.7421118E+000
2	0	0	1	1.729247980731452E+002	-1.1494428E+000	-1.1497757E+000	-9.944376829607904E+001	-9.1101611E-001	38	5.9779960E-001	1.1433803E-001	-1.7475753E+000
2	0	0	1	1.732581980647228E+002	-1.1527768E+000	-1.1540723E+000	-1.024852276062929E+002	-9.4474757E-001	38	5.9914637E-001	1.1827536E-001	-1.7532187E+000
2	0	0	1	1.735914980563030E+002	-1.1561097E+000	-1.1566566E+000	-1.056197253083494E+002	-9.7950006E-001	38	6.0045725E-001	1.2216575E-001	-1.7571139E+000
2	0	0	1	1.739247980478831E+002	-1.1594429E+000	-1.1596431E+000	-1.086765079389429E+002	-1.0152904E+000	38	6.0171658E-001	1.2602596E-001	-1.7613597E+000
2	0	0	1	1.742581980394607E+002	-1.1627767E+000	-1.1631883E+000	-1.116813348493766E+002	-1.0520992E+000	37	6.0306692E-001	1.2990643E-001	-1.7662553E+000
2	0	0	1	1.745915980310383E+002	-1.1661110E+000	-1.1662325E+000	-1.148962803418981E+002	-1.0899398E+000	37	6.0457140E-001	1.3399577E-001	-1.7708039E+000
2	0	0	1	1.749249980226159E+002	-1.1694447E+000	-1.1697077E+000	-1.182021705862248E+002	-1.1288680E+000	37	6.0595793E-001	1.3826199E-001	-1.7756655E+000
2	0	0	1	1.752583980141935E+002	-1.1727788E+000	-1.1728874E+000	-1.216945094087398E+002	-1.1689315E+000	37	6.0759443E-001	1.4273396E-001	-1.7804818E+000
2	0	0	1	1.755917980057711E+002	-1.1761128E+000	-1.1761862E+000	-1.251754742438064E+002	-1.2101603E+000	37	6.0907382E-001	1.4722967E-001	-1.7852600E+000
2	0	0	1	1.759250979973513E+002	-1.1794456E+000	-1.1807631E+000	-1.287302263271407E+002	-1.2525443E+000	37	6.1033922E-001	1.5199991E-001	-1.7911024E+000
2	0	0	1	1.762583979889314E+002	-1.1827788E+000	-1.1837462E+000	-1.322442111672217E+002	-1.2961082E+000	37	6.1182147E-001	1.5654358E-001	-1.7955678E+000
2	0	0	1	1.765917979805090E+002	-1.1861126E+000	-1.1859289E+000	-1.358366148806267E+002	-1.3408720E+000	37	6.1315489E-001	1.6109258E-001	-1.7990838E+000
2	0	0	1	1.769251979720866E+002	-1.1894468E+000	-1.1895286E+000	-1.392907957205221E+002	-1.3868073E+000	37	6.1462355E-001	1.6569038E-001	-1.8041521E+000
2	0	0	1	1.772585979636642E+002	-1.1927807E+000	-1.1929628E+000	-1.428465980522519E+002	-1.4339141E+000	37	6.1600655E-001	1.7041068E-001	-1.8089693E+000
2	0	0	1	1.775919979552418E+002	-1.1961149E+000	-1.1971960E+000	-1.464441218463099E+002	-1.4822130E+000	37	6.1733532E-001	1.7532232E-001	-1.8145313E+000
2	0	0	1	1.779253979468194E+002	-1.1994488E+000	-1.1987993E+000	-1.501588623938592E+002	-1.5317295E+000	37	6.1885619E-001	1.8001033E-001	-1.8176554E+000
2	0	0	1	1.782586979383996E+002	-1.2027817E+000	-1.2028180E+000	-1.539711865614900E+002	-1.5824898E+000	37	6.2029630E-001	1.8519932E-001	-1.8231144E+000
2	0	0	1	1.785920979299772E+002	-1.2061158E+000	-1.2057408E+000	-1.576952797423382E+002	-1.6345246E+000	37	6.2192279E-001	1.9013964E-001	-1.8276637E+000
2	0	0	1	1.789253979215573E+002	-1.2094488E+000	-1.2096127E+000	-1.615694718306743E+002	-1.6878035E+000	37	6.2285262E-001	1.9543649E-001	-1.8324654E+000
2	0	0	1	1.792587979131349E+002	-1.2127827E+000	-1.2138383E+000	-1.653532666151254E+002	-1.7423800E+000	37	6.2416893E-001	2.0071213E-001	-1.8380072E+000
2	0	0	1	1.795921979047125E+002	-1.2161169E+000	-1.2163489E+000	-1.692218762998252E+002	-1.7982340E+000	37	6.2579483E-001	2.0583284E-001	-1.8421438E+000
2	0	0	1	1.799255978962901E+002	-1.2194507E+000	-1.2197688E+000	-1.730964353630318E+002	-1.8553751E+000	37	6.2710363E-001	2.1113762E-001	-1.8468723E+000
2	0	0	1	1.802589978878677E+002	-1.2227849E+000	-1.2236410E+000	-1.769907428008873E+002	-1.9138125E+000	37	6.2840962E-001	2.1657313E-001	-1.8520507E+000
2	0	0	1	1.805923978794453E+002	-1.2261186E+000	-1.2263638E+000	-1.808894106169200E+002	-1.9735532E+000	37	6.2982875E-001	2.2183622E-001	-1.8561926E+000
2	0	0	1	1.809256978710255E+002	-1.2294519E+000	-1.2299948E+000	-1.847946622536671E+002	-2.0345721E+000	37	6.3110304E-001	2.2729647E-001	-1.8610978E+000
2	0	0	1	1.812589978626056E+002	-1.2327847E+000	-1.2328346E+000	-1.886910563407304E+002	-2.0968904E+000	37	6.3252378E-001	2.3262486E-001	-1.8653584E+000
2	0	0	1	1.815923978541832E+002	-1.2361189E+000	-1.2367467E+000	-1.927446712334552E+002	-2.1605613E+000	37	6.3385141E-001	2.3837633E-001	-1.8705981E+000
2	0	0	1	1.819257978457608E+002	-1.2394527E+000	-1.2395984E+000	-1.966501896505727E+002	-2.2255504E+000	37	6.3522381E-001	2.4376726E-001	-1.8748221E+000
2	0	0	1	1.822591978373384E+002	-1.2427868E+000	-1.2439780E+000	-2.004733397379621E+002	-2.2918291E+000	37	6.3652635E-001	2.4938443E-001	-1.8805044E+000
2	0	0	1	1.825925978289160E+002	-1.2461209E+000	-1.2470309E+000	-2.044506787618056E+002	-2.3594105E+000	37	6.3785005E-001	2.5495631E-001	-1.8848809E+000
2	0	0	1	1.828591978221812E+002	-1.2487867E+000	-1.2499652E+000	-2.079483545732692E+002	-2.4143455E+000	37	6.3911331E-001	2.5992820E-001	-1.8890785E+000
2	0	0	1	1.829639978195337E+002	-1.2499536E+000	-1.2497536E+000	-2.093907308270855E+002	-2.4361923E+000	37	6.3952625E-001	2.6168683E-001	-1.8892798E+000
2	1	0	1	2.722459955640807E+002	-9.4858557E-001	-9.4423348E-001	3.339987104682507E+001	1.1363209E-003	38	-1.0956599E+000	-3.1537276E-002	1.5142637E-001
2	1	0	1	2.724293955594476E+002	-9.5041990E-001	-9.5013118E-001	2.751640637174336E+001	6.2810760E-003	38	-1.0866264E+000	-2.6144195E-002	1.3649523E-001
2	1	0	1	2.727627955510252E+002	-9.5375389E-001	-9.5473754E-001	2.004076630484548E+001	1.4079352E-002	38	-1.0706441E+000	-1.9133672E-002	1.1590660E-001
2	1	0	1	2.730960955426053E+002	-9.5708692E-001	-9.5862359E-001	1.448034484316008E+001	1.9729665E-002	38	-1.0537050E+000	-1.3881200E-002	9.5081389E-002
2	1	0	1	2.734293955341855E+002	-9.6041983E-001	-9.6050560E-001	9.939642344067977E+000	2.3709945E-002	38	-1.0326618E+000	-9.5470818E-003	7.2156191E-002
2	1	0	1	2.737627955257631E+002	-9.6375376E-001	-9.6360981E-001	6.125519616957632E+000	2.6307257E-002	38	-1.0034255E+000	-5.9026107E-003	3.9815664E-002
2	1	0	1	2.741128955169188E+002	-9.6725494E-001	-9.6703380E-001	2.703255105347544E+000	2.7747963E-002	38	-9.6016419E-001	-2.6141391E-003	-6.8696141E-003
2	1	0	1	2.744629955080745E+002	-9.7075570E-001	-9.7042418E-001	-2.785583419751539E-001	2.8121205E-002	39	-9.0232879E-001	2.7031975E-004	-6.8095386E-002
2	0	0	1	2.747962954996547E+002	-9.7408891E-001	-9.7493869E-001	-2.803891928160926E+000	2.7540356E-002	39	-8.3770466E-001	2.7336227E-003	-1.3723403E-001
2	0	0	1	2.751295954912348E+002	-9.7742188E-001	-9.7938156E-001	-5.085460030064695E+000	2.6160974E-002	39	-7.7779388E-001	4.9806056E-003	-2.0158768E-001
2	0	0	1	2.754629954828124E+002	-9.8075575E-001	-9.8142892E-001	-7.200976700041977E+000	2.4049513E-002	39	-7.2804362E-001	7.0672468E-003	-2.5338531E-001
2	0	0	1	2.757963954743900E+002	-9.8408997E-001	-9.8426795E-001	-9.187892329191214E+000	2.1254104E-002	39	-6.7567861E-001	9.0433480E-003	-3.0858934E-001
2	0	0	1	2.761297954659676E+002	-9.8742366E-001	-9.8833430E-001	-1.094169898114887E+001	1.7830098E-002	39	-5.9984797E-001	1.0814057E-002	-3.8848633E-001
2	0	0	1	2.764631954575452E+002	-9.9075794E-001	-9.8988360E-001	-1.281656418994470E+001	1.3803663E-002	38	-3.0517188E-001	1.2686906E-002	-6.8471169E-001
2	0	0	1	2.767965954491228E+002	-9.9409181E-001	-9.9372119E-001	-1.478896265419067E+001	9.1376035E-003	38	1.4424700E-001	1.4696105E-002	-1.1379682E+000
2	0	0	1	2.771298954407030E+002	-9.9742496E-001	-9.9822593E-001	-1.667522288843350E+001	3.8328546E-003	38	3.6321715E-001	1.6645640E-002	-1.3614430E+000
2	0	0	1	2.774631954322831E+002	-1.0007579E+000	-1.0003227E+000	-1.843827851738087E+001	-2.0818121E-003	38	4.2062134E-001	1.8444229E-002	-1.4209440E+000
2	0	0	1	2.777965954238607E+002	-1.0040915E+000	-1.0045022E+000	-2.026596620629323E+001	-8.5948287E-003	38	4.3086305E-001	2.0357206E-002	-1.4353652E+000
2	0	0	1	2.781299954154383E+002	-1.0074260E+000	-1.0082414E+000	-2.207369090188905E+001	-1.5713552E-002	38	4.3676531E-001	2.2255609E-002	-1.4450067E+000
2	0	0	1	2.784633954070159E+002	-1.0107597E+000	-1.0124466E+000	-2.385843972537549E+001	-2.3431979E-002	38	4.4165915E-001	2.4155397E-002	-1.4541059E+000
2	0	0	1	2.787967953985935E+002	-1.0140941E+000	-1.0155634E+000	-2.563544711129180E+001	-3.1744029E-002	38	4.4788808E-001	2.6034420E-002	-1.4634514E+000
2	0	0	1	2.791301953901711E+002	-1.0174278E+000	-1.0170416E+000	-2.736139183759030E+001	-4.0638756E-002	38	4.5850626E-001	2.7827673E-002	-1.4755478E+000
2	0	0	1	2.794634953817513E+002	-1.0207608E+000	-1.0218918E+000	-2.893074568243097E+001	-5.0080806E-002	38	4.8763019E-001	2.9564092E-002	-1.5095220E+000
2	0	0	1	2.797967953733314E+002	-1.0240940E+000	-1.0241461E+000	-3.075063935038386E+001	-6.0085230E-002	38	5.3127599E-001	3.1493146E-002	-1.5554221E+000
2	0	0	1	2.801301953649090E+002	-1.0274277E+000	-1.0284511E+000	-3.256449910850283E+001	-7.0703804E-002	38	5.4622805E-001	3.3490993E-002	-1.5746791E+000
2	0	0	1	2.804635953564866E+002	-1.0307620E+000	-1.0306779E+000	-3.417168662897893E+001	-8.1889629E-002	38	5.5033344E-001	3.5220001E-002	-1.5810113E+000
2	0	0	1	2.807969953480642E+002	-1.0340958E+000	-1.0343130E+000	-3.578668351403701E+001	-9.3612291E-002	38	5.5290133E-001	3.7014630E-002	-1.5872142E+000
2	0	0	1	2.811303953396418E+002	-1.0374299E+000	-1.0378230E+000	-3.745592946359699E+001	-1.0588213E-001	38	5.5510104E-001	3.8872622E-002	-1.5929240E+000
2	0	0	1	2.814637953312194E+002	-1.0407639E+000	-1.0403872E+000	-3.919610247825656E+001	-1.1872240E-001	38	5.5698389E-001	4.0779121E-002	-1.5973711E+000
2	0	0	1	2.817970953227996E+002	-1.0440971E+000	-1.0449334E+000	-4.103873795378851E+001	-1.3215640E-001	38	5.5891508E-001	4.2882748E-002	-1.6038485E+000
2	0	0	1	2.821303953143797E+002	-1.0474299E+000	-1.0481957E+000	-4.303591131671180E+001	-1.4623092E-001	38	5.6027079E-001	4.5110058E-002	-1.6084665E+000
2	0	0	1	2.824637953059573E+002	-1.0507636E+000	-1.0506756E+000	-4.522758799944256E+001	-1.6100854E-001	38	5.6207585E-001	4.7519524E-002	-1.6127515E+000
2	0	0	1	2.827971952975349E+002	-1.0540978E+000	-1.0548669E+000	-4.768785029074189E+001	-1.7656486E-001	38	5.6375730E-001	5.0304335E-002	-1.6186242E+000
2	0	0	1	2.831305952891125E+002	-1.0574317E+000	-1.0571030E+000	-5.040297273923980E+001	-1.9298552E-001	38	5.6610382E-001	5.3281136E-002	-1.6232069E+000
2	0	0	1	2.834639952806901E+002	-1.0607659E+000	-1.0599331E+000	-5.340057983026645E+001	-2.1036193E-001	38	5.6797785E-001	5.6601040E-002	-1.6279109E+000
2	0	0	1	2.837973952722678E+002	-1.0640999E+000	-1.0643106E+000	-5.656498052203983E+001	-2.2876760E-001	38	5.6968945E-001	6.0202707E-002	-1.6340001E+000
2	0	0	1	2.841306952638479E+002	-1.0674328E+000	-1.0682080E+000	-5.978474941782360E+001	-2.4823290E-001	38	5.7177877E-001	6.3862547E-002	-1.6399868E+000
2	0	0	1	2.844639952554280E+002	-1.0707660E+000	-1.0717087E+000	-6.300640531457597E+001	-2.6877248E-001	38	5.7368439E-001	6.7524515E-002	-1.6453931E+000
2	0	0	1	2.847973952470056E+002	-1.0740998E+000	-1.0751733E+000	-6.613859768153884E+001	-2.9037672E-001	38	5.7577711E-001	7.1110450E-002	-1.6509504E+000
2	0	0	1	2.851307952385832E+002	-1.0774341E+000	-1.0775052E+000	-6.913275419661431E+001	-3.1300128E-001	38	5.7741117E-001	7.4490905E-002	-1.6549164E+000
2	0	0	1	2.854641952301608E+002	-1.0807679E+000	-1.0806901E+000	-7.178552068628710E+001	-3.3656496E-001	38	5.7868683E-001	7.7577904E-002	-1.6593770E+000
2	0	0	1	2.857975952217384E+002	-1.0841020E+000	-1.0847030E+000	-7.393595018562087E+001	-3.6092535E-001	38	5.8013630E-001	8.0198541E-002	-1.6648393E+000
2	0	0	1	2.861309952133161E+002	-1.0874358E+000	-1.0868737E+000	-7.528305323243762E+001	-3.8586402E-001	38	5.8078498E-001	8.1823170E-002	-1.6676586E+000
2	0	0	1	2.864642952048962E+002	-1.0907688E+000	-1.0921328E+000	-7.579233515968147E+001	-4.1109464E-001	38	5.8098674E-001	8.2775295E-002	-1.6731195E+000
2	0	0	1	2.867975951964763E+002	-1.0941020E+000	-1.0948449E+000	-7.585680143597961E+001	-4.3641615E-001	38	5.8137220E-001	8.3051436E-002	-1.6762171E+000
2	0	0	1	2.871309951880539E+002	-1.0974357E+000	-1.0988058E+000	-7.557608165018485E+001	-4.6170563E-001	38	5.8131784E-001	8.3043434E-002	-1.6801236E+000
2	0	0	1	2.874643951796315E+002	-1.1007699E+000	-1.1017622E+000	-7.522573560698174E+001	-4.8688820E-001	38	5.8098269E-001	8.2880870E-002	-1.6827449E+000
2	0	0	1	2.877977951712091E+002	-1.1041039E+000	-1.1050142E+000	-7.488763390732967E+001	-5.1195484E-001	38	5.8093989E-001	8.2751900E-002	-1.6859541E+000
2	0	0	1	2.881311951627868E+002	-1.1074380E+000	-1.1080489E+000	-7.460672941431176E+001	-5.3691924E-001	38	5.8087379E-001	8.2667902E-002	-1.6889226E+000
2	0	0	1	2.884645951543644E+002	-1.1107719E+000	-1.1107842E+000	-7.461393577242552E+001	-5.6183916E-001	38	5.8086330E-001	8.2879975E-002	-1.6916475E+000
2	0	0	1	2.887978951459445E+002	-1.1141049E+000	-1.1149584E+000	-7.508035320817288E+001	-5.8683378E-001	38	5.8112013E-001	8.3711468E-002	-1.6960785E+000
2	0	0	1	2.891312951375221E+002	-1.1174390E+000	-1.1180469E+000	-7.594252516415008E+001	-6.1206204E-001	38	5.8149642E-001	8.4907301E-002	-1.6995432E+000
2	0	0	1	2.894645951291022E+002	-1.1207718E+000	-1.1210916E+000	-7.734648884873727E+001	-6.3766509E-001	38	5.8225435E-001	8.6712502E-002	-1.7033460E+000
2	0	0	1	2.897979951206798E+002	-1.1241059E+000	-1.1242810E+000	-7.896322607743090E+001	-6.6378278E-001	38	5.8286732E-001	8.8776857E-002	-1.7071483E+000
2	0	0	1	2.901313951122575E+002	-1.1274399E+000	-1.1288331E+000	-8.082800488216981E+001	-6.9048184E-001	38	5.8383399E-001	9.1241322E-002	-1.7126670E+000
2	0	0	1	2.904647951038351E+002	-1.1307740E+000	-1.1313899E+000	-8.299950325769566E+001	-7.1785504E-001	38	5.8497179E-001	9.3904793E-002	-1.7163616E+000
2	0	0	1	2.907981950954127E+002	-1.1341081E+000	-1.1349357E+000	-8.529267583779392E+001	-7.4597603E-001	38	5.8592659E-001	9.6801706E-002	-1.7208624E+000
2	0	0	1	2.911314950869928E+002	-1.1374408E+000	-1.1378173E+000	-8.776189569450696E+001	-7.7488327E-001	38	5.8722061E-001	9.9857002E-002	-1.7250378E+000
2	0	0	1	2.914648950785704E+002	-1.1407751E+000	-1.1413933E+000	-9.033849994666627E+001	-8.0464220E-001	38	5.8844179E-001	1.0311176E-001	-1.7298350E+000
2	0	0	1	2.917981950701505E+002	-1.1441078E+000	-1.1440934E+000	-9.321805477113890E+001	-8.3530164E-001	38	5.8975679E-001	1.0665016E-001	-1.7338502E+000
2	0	0	1	2.921315950617281E+002	-1.1474419E+000	-1.1484661E+000	-9.611497369254778E+001	-8.6693603E-001	38	5.9095973E-001	1.1038479E-001	-1.7394259E+000
2	0	0	1	2.924649950533058E+002	-1.1507759E+000	-1.1514261E+000	-9.911563272253795E+001	-8.9955515E-001	38	5.9221292E-001	1.1412432E-001	-1.7436390E+000
2	0	0	1	2.927983950448834E+002	-1.1541097E+000	-1.1545031E+000	-1.022715394284763E+002	-9.3320078E-001	38	5.9374684E-001	1.1807281E-001	-1.7482500E+000
2	0	0	1	2.931317950364610E+002	-1.1574440E+000	-1.1576108E+000	-1.053982858618178E+002	-9.6789360E-001	38	5.9512311E-001	1.2201019E-001	-1.7527339E+000
2	0	0	1	2.934651950280386E+002	-1.1607777E+000	-1.1611811E+000	-1.086016984067510E+002	-1.0036508E+000	38	5.9640229E-001	1.2610623E-001	-1.7575834E+000
2	0	0	1	2.937984950196187E+002	-1.1641110E+000	-1.1657389E+000	-1.120562416565190E+002	-1.0405079E+000	37	5.9788448E-001	1.3062832E-001	-1.7636235E+000
2	0	0	1	2.941317950111988E+002	-1.1674438E+000	-1.1674294E+000	-1.154936927896147E+002	-1.0785059E+000	37	5.9946984E-001	1.3483074E-001	-1.7668993E+000
2	0	0	1	2.944651950027765E+002	-1.1707778E+000	-1.1720524E+000	-1.189721381024829E+002	-1.1176674E+000	37	6.0091358E-001	1.3944158E-001	-1.7729659E+000
2	0	0	1	2.947985949943541E+002	-1.1741120E+000	-1.1748679E+000	-1.223820961877229E+002	-1.1579767E+000	37	6.0228097E-001	1.4378279E-001	-1.7771488E+000
2	0	0	1	2.951319949859317E+002	-1.1774458E+000	-1.1775254E+000	-1.259237464490225E+002	-1.1994458E+000	37	6.0383266E-001	1.4827842E-001	-1.7813580E+000
2	0	0	1	2.954653949775093E+002	-1.1807799E+000	-1.1815373E+000	-1.296014156095152E+002	-1.2421194E+000	37	6.0531545E-001	1.5312891E-001	-1.7868527E+000
2	0	0	1	2.957986949690894E+002	-1.1841129E+000	-1.1853167E+000	-1.332405645737531E+002	-1.2860011E+000	37	6.0691464E-001	1.5793227E-001	-1.7922313E+000
2	0	0	1	2.961320949606670E+002	-1.1874471E+000	-1.1883000E+000	-1.368835691001636E+002	-1.3311092E+000	37	6.0831720E-001	1.6265875E-001	-1.7966173E+000
2	0	0	1	2.964653949522472E+002	-1.1907798E+000	-1.1909289E+000	-1.405096908860903E+002	-1.3774153E+000	37	6.0987359E-001	1.6733706E-001	-1.8008025E+000
2	0	0	1	2.967987949438248E+002	-1.1941139E+000	-1.1953533E+000	-1.444179072257262E+002	-1.4249916E+000	37	6.1116791E-001	1.7263041E-001	-1.8065212E+000
2	0	0	1	2.971321949354024E+002	-1.1974480E+000	-1.1977901E+000	-1.482279756102344E+002	-1.4738586E+000	37	6.1247414E-001	1.7754601E-001	-1.8102643E+000
2	0	0	1	2.974655949269800E+002	-1.2007818E+000	-1.2023129E+000	-1.520970111391116E+002	-1.5240045E+000	37	6.1414891E-001	1.8286821E-001	-1.8164618E+000
2	0	0	1	2.977989949185576E+002	-1.2041160E+000	-1.2047241E+000	-1.559369028201318E+002	-1.5754316E+000	37	6.1527193E-001	1.8786094E-001	-1.8199960E+000
2	0	0	1	2.981323949101352E+002	-1.2074498E+000	-1.2092277E+000	-1.597370326707778E+002	-1.6281351E+000	37	6.1666948E-001	1.9315845E-001	-1.8258972E+000
2	0	0	1	2.984656949017153E+002	-1.2107829E+000	-1.2110307E+000	-1.633782467359845E+002	-1.6820598E+000	37	6.1798316E-001	1.9785607E-001	-1.8290138E+000
2	0	0	1	2.987989948932955E+002	-1.2141159E+000	-1.2148486E+000	-1.672235053934050E+002	-1.7372315E+000	37	6.1936152E-001	2.0315124E-001	-1.8342102E+000
2	0	0	1	2.991323948848731E+002	-1.2174498E+000	-1.2181768E+000	-1.710756135906950E+002	-1.7937058E+000	37	6.2089652E-001	2.0840035E-001	-1.8390734E+000
2	0	0	1	2.994657948764507E+002	-1.2207839E+000	-1.2219123E+000	-1.750212653088242E+002	-1.8514812E+000	37	6.2182510E-001	2.1386063E-001	-1.8437374E+000
2	0	0	1	2.997991948680283E+002	-1.2241176E+000	-1.2235206E+000	-1.788226910621561E+002	-1.9105405E+000	37	6.2334573E-001	2.1879326E-001	-1.8468664E+000
2	0	0	1	3.001325948596059E+002	-1.2274520E+000	-1.2271473E+000	-1.828367208938662E+002	-1.9709047E+000	37	6.2492830E-001	2.2436759E-001	-1.8520756E+000
2	0	0	1	3.004659948511835E+002	-1.2307858E+000	-1.2319402E+000	-1.867010310392952E+002	-2.0325890E+000	37	6.2632871E-001	2.3000449E-001	-1.8582689E+000
2	0	0	1	3.007992948427636E+002	-1.2341191E+000	-1.2347249E+000	-1.906726401845010E+002	-2.0955544E+000	37	6.2760001E-001	2.3542826E-001	-1.8623250E+000
2	0	0	1	3.011325948343438E+002	-1.2374518E+000	-1.2362648E+000	-1.948320113390241E+002	-2.1598771E+000	37	6.2888467E-001	2.4086396E-001	-1.8651495E+000
2	0	0	1	3.014659948259214E+002	-1.2407856E+000	-1.2415818E+000	-1.990758756368500E+002	-2.2256212E+000	37	6.3023072E-001	2.4716899E-001	-1.8718126E+000
2	0	0	1	3.017993948174990E+002	-1.2441199E+000	-1.2447436E+000	-2.033021719419935E+002	-2.2927792E+000	37	6.3188308E-001	2.5305909E-001	-1.8766267E+000
2	0	0	1	3.021327948090766E+002	-1.2474536E+000	-1.2479811E+000	-2.075320100686936E+002	-2.3613517E+000	37	6.3350153E-001	2.5899601E-001	-1.8814826E+000
2	0	0	0	3.023327948040242E+002	-1.2494537E+000	-1.2513311E+000	-2.102981769408061E+002	-2.4030340E+000	37	6.3413990E-001	2.6315266E-001	-1.8854710E+000
2	0	0	1	3.023707948030642E+002	-1.2499536E+000	-1.2453110E+000	-2.111067588560045E+002	-2.4110446E+000	37	6.3527846E-001	2.6289359E-001	-1.8805895E+000