mode	ox/red	error	control changes	time/s	control/V	Ewe/V	<I>/mA	(Q-Qo)/C	I Range	<Ece>/V	P/W	Ewe-Ece/V	
2	0	0	0	1.235921993193188E+002	-1.2552743E+000	-1.2587883E+000	-2.029861409804403E+002	-7.2193751E-003	37	6.4914286E-001	2.5551659E-001	-1.9079312E+000
2	0	0	1	1.237755993146857E+002	-1.2534412E+000	-1.2537204E+000	-2.000649059690877E+002	-4.3934159E-002	37	6.4781952E-001	2.5082546E-001	-1.9015399E+000
2	0	0	1	1.241089993062633E+002	-1.2501067E+000	-1.2508646E+000	-1.963239535721327E+002	-1.0992197E-001	37	6.4684904E-001	2.4557468E-001	-1.8977137E+000
2	0	0	1	1.244423992978409E+002	-1.2467729E+000	-1.2477055E+000	-1.926074538209294E+002	-1.7466478E-001	37	6.4563829E-001	2.4031737E-001	-1.8933437E+000
2	0	0	1	1.247756992894210E+002	-1.2434400E+000	-1.2418678E+000	-1.887417176542606E+002	-2.3812543E-001	37	6.4402968E-001	2.3439226E-001	-1.8858974E+000
2	0	0	1	1.251089992810012E+002	-1.2401069E+000	-1.2394062E+000	-1.850668732515633E+002	-3.0032638E-001	37	6.4267778E-001	2.2937304E-001	-1.8820840E+000
2	0	0	1	1.254423992725788E+002	-1.2367731E+000	-1.2395575E+000	-1.810835851342376E+002	-3.6126792E-001	37	6.4097410E-001	2.2446352E-001	-1.8805315E+000
2	0	0	1	1.257757992641564E+002	-1.2334387E+000	-1.2357228E+000	-1.774610850844665E+002	-4.2094666E-001	37	6.4023209E-001	2.1929270E-001	-1.8759549E+000
2	0	0	1	1.261091992557340E+002	-1.2301050E+000	-1.2307190E+000	-1.734794928235397E+002	-4.7935915E-001	37	6.3839597E-001	2.1350451E-001	-1.8691149E+000
2	0	0	1	1.264425992473116E+002	-1.2267708E+000	-1.2301023E+000	-1.696182515765004E+002	-5.3645885E-001	37	6.3702899E-001	2.0864780E-001	-1.8671312E+000
2	0	0	1	1.267759992388892E+002	-1.2234370E+000	-1.2218051E+000	-1.657019663318176E+002	-5.9226817E-001	37	6.3586944E-001	2.0245551E-001	-1.8576746E+000
2	0	0	1	1.271092992304693E+002	-1.2201040E+000	-1.2197015E+000	-1.618511567499459E+002	-6.4676684E-001	37	6.3410330E-001	1.9741011E-001	-1.8538048E+000
2	0	0	1	1.274425992220495E+002	-1.2167708E+000	-1.2220273E+000	-1.579710582181870E+002	-6.9997418E-001	37	6.3222224E-001	1.9304495E-001	-1.8542495E+000
2	0	0	1	1.277759992136271E+002	-1.2134368E+000	-1.2115082E+000	-1.542820915248985E+002	-7.5193822E-001	37	6.3101012E-001	1.8691401E-001	-1.8425183E+000
2	0	0	1	1.281093992052047E+002	-1.2101028E+000	-1.2118531E+000	-1.506213067883836E+002	-8.0267841E-001	37	6.2953037E-001	1.8253091E-001	-1.8413835E+000
2	0	0	1	1.284427991967823E+002	-1.2067691E+000	-1.2048932E+000	-1.467939638058122E+002	-8.5216647E-001	37	6.2836111E-001	1.7687105E-001	-1.8332543E+000
2	0	0	1	1.287761991883599E+002	-1.2034348E+000	-1.2044092E+000	-1.430972453171223E+002	-9.0040362E-001	37	6.2681389E-001	1.7234765E-001	-1.8312231E+000
2	0	0	1	1.291095991799375E+002	-1.2001009E+000	-1.2003608E+000	-1.395182474138533E+002	-9.4743699E-001	37	6.2502873E-001	1.6747223E-001	-1.8253895E+000
2	0	0	1	1.294428991715176E+002	-1.1967679E+000	-1.1949189E+000	-1.358299254423319E+002	-9.9323785E-001	37	6.2341142E-001	1.6230574E-001	-1.8183303E+000
2	0	0	1	1.297761991630978E+002	-1.1934348E+000	-1.1959400E+000	-1.321464780279216E+002	-1.0378054E+000	37	6.2163305E-001	1.5803926E-001	-1.8175731E+000
2	0	0	1	1.301095991546754E+002	-1.1901011E+000	-1.1885190E+000	-1.285573729107111E+002	-1.0811731E+000	37	6.2010300E-001	1.5279289E-001	-1.8086220E+000
2	0	0	1	1.304429991462530E+002	-1.1867669E+000	-1.1900131E+000	-1.248979258108284E+002	-1.1233468E+000	37	6.1838931E-001	1.4863016E-001	-1.8084023E+000
2	0	0	1	1.307763991378306E+002	-1.1834331E+000	-1.1809630E+000	-1.213134077286104E+002	-1.1643077E+000	37	6.1679447E-001	1.4326665E-001	-1.7977575E+000
2	0	0	1	1.311097991294082E+002	-1.1800987E+000	-1.1827537E+000	-1.178421104739963E+002	-1.2040918E+000	37	6.1543030E-001	1.3937819E-001	-1.7981839E+000
2	0	0	1	1.314431991209858E+002	-1.1767650E+000	-1.1818804E+000	-1.143654489130211E+002	-1.2427213E+000	37	6.1415219E-001	1.3516627E-001	-1.7960325E+000
2	0	0	1	1.317764991125659E+002	-1.1734321E+000	-1.1724689E+000	-1.109166001625874E+002	-1.2801857E+000	37	6.1231571E-001	1.3004626E-001	-1.7847846E+000
2	0	0	1	1.321097991041461E+002	-1.1700987E+000	-1.1679535E+000	-1.074166688397345E+002	-1.3164943E+000	37	6.1117375E-001	1.2545767E-001	-1.7791272E+000
2	0	0	1	1.324431990957237E+002	-1.1667650E+000	-1.1668873E+000	-1.041230066421745E+002	-1.3516865E+000	37	6.0943604E-001	1.2149981E-001	-1.7763233E+000
2	0	0	1	1.327765990873013E+002	-1.1634307E+000	-1.1625240E+000	-1.007048897048255E+002	-1.3857532E+000	37	6.0773414E-001	1.1707185E-001	-1.7702582E+000
2	0	0	1	1.331099990788789E+002	-1.1600969E+000	-1.1616305E+000	-9.727700293878138E+001	-1.4186845E+000	37	6.0578150E-001	1.1299993E-001	-1.7674119E+000
2	0	0	1	1.334433990704565E+002	-1.1567628E+000	-1.1579016E+000	-9.410824074588277E+001	-1.4505186E+000	37	6.0430324E-001	1.0896809E-001	-1.7622049E+000
2	0	0	1	1.337767990620341E+002	-1.1534289E+000	-1.1506371E+000	-9.077921884433624E+001	-1.4812707E+000	37	6.0290909E-001	1.0445394E-001	-1.7535462E+000
2	0	0	1	1.341100990536142E+002	-1.1500961E+000	-1.1496627E+000	-8.753504474711826E+001	-1.5109168E+000	37	6.0113186E-001	1.0063578E-001	-1.7507946E+000
2	0	0	1	1.344433990451944E+002	-1.1467627E+000	-1.1474588E+000	-8.436834027782999E+001	-1.5394957E+000	37	5.9947938E-001	9.6809193E-002	-1.7469382E+000
2	0	0	1	1.347767990367720E+002	-1.1434290E+000	-1.1427315E+000	-8.122392568287796E+001	-1.5670277E+000	37	5.9803408E-001	9.2817143E-002	-1.7407656E+000
2	0	0	1	1.351101990283496E+002	-1.1400949E+000	-1.1415669E+000	-7.823525399966479E+001	-1.5935442E+000	37	5.9598374E-001	8.9310773E-002	-1.7375506E+000
2	0	0	1	1.354435990199272E+002	-1.1367610E+000	-1.1360077E+000	-7.521461758648957E+001	-1.6190618E+000	37	5.9417969E-001	8.5444383E-002	-1.7301874E+000
2	0	0	1	1.357769990115048E+002	-1.1334268E+000	-1.1343144E+000	-7.226261642988720E+001	-1.6435792E+000	37	5.9251243E-001	8.1968531E-002	-1.7268269E+000
2	0	0	1	1.361103990030824E+002	-1.1300930E+000	-1.1325721E+000	-6.943029041014452E+001	-1.6671299E+000	37	5.9098542E-001	7.8634806E-002	-1.7235575E+000
2	0	0	1	1.364436989946626E+002	-1.1267599E+000	-1.1274217E+000	-6.651596818260401E+001	-1.6897185E+000	37	5.8962077E-001	7.4991547E-002	-1.7170424E+000
2	0	0	1	1.367770989862402E+002	-1.1234260E+000	-1.1233035E+000	-6.366551657810123E+001	-1.7113546E+000	37	5.8766031E-001	7.1515702E-002	-1.7109638E+000
2	0	0	1	1.371103989778203E+002	-1.1200931E+000	-1.1208851E+000	-6.085926140330747E+001	-1.7320445E+000	37	5.8604622E-001	6.8216242E-002	-1.7069314E+000
2	0	0	1	1.374437989693979E+002	-1.1167589E+000	-1.1180381E+000	-5.808420644130848E+001	-1.7518058E+000	37	5.8384728E-001	6.4940356E-002	-1.7018853E+000
2	0	0	1	1.377771989609755E+002	-1.1134249E+000	-1.1134609E+000	-5.539906027523227E+001	-1.7706581E+000	37	5.8187693E-001	6.1684687E-002	-1.6953378E+000
2	0	0	1	1.381105989525531E+002	-1.1100907E+000	-1.1114798E+000	-5.271003586918209E+001	-1.7886162E+000	37	5.8031446E-001	5.8586139E-002	-1.6917942E+000
2	0	0	1	1.384439989441307E+002	-1.1067568E+000	-1.1071451E+000	-5.012352510817675E+001	-1.8056970E+000	37	5.7820106E-001	5.5494014E-002	-1.6853461E+000
2	0	0	1	1.387772989357109E+002	-1.1034242E+000	-1.1029406E+000	-4.756445535866942E+001	-1.8219155E+000	37	5.7711601E-001	5.2460767E-002	-1.6800566E+000
2	0	0	1	1.391272989268691E+002	-1.0999237E+000	-1.1000305E+000	-4.496377688866971E+001	-1.8380339E+000	37	5.7464492E-001	4.9461529E-002	-1.6746755E+000
2	0	0	1	1.394773989180248E+002	-1.0964230E+000	-1.0949681E+000	-4.254747039140557E+001	-1.8533205E+000	38	5.7293940E-001	4.6588123E-002	-1.6679075E+000
2	0	0	1	1.398107989096025E+002	-1.0930889E+000	-1.0935671E+000	-4.009939683801576E+001	-1.8670416E+000	38	5.7088816E-001	4.3851383E-002	-1.6644553E+000
2	0	0	1	1.401441989011801E+002	-1.0897549E+000	-1.0910084E+000	-3.781955945036862E+001	-1.8799782E+000	38	5.6917411E-001	4.1261457E-002	-1.6601825E+000
2	0	0	1	1.404774988927602E+002	-1.0864222E+000	-1.0869182E+000	-3.554712185679966E+001	-1.8921510E+000	38	5.6677830E-001	3.8636815E-002	-1.6536965E+000
2	0	0	1	1.408107988843403E+002	-1.0830888E+000	-1.0823801E+000	-3.326337961856314E+001	-1.9035629E+000	38	5.6492466E-001	3.6003619E-002	-1.6473048E+000
2	0	0	1	1.411441988759179E+002	-1.0797552E+000	-1.0806296E+000	-3.110430285092821E+001	-1.9142386E+000	38	5.6299853E-001	3.3612229E-002	-1.6436281E+000
2	0	0	1	1.414775988674955E+002	-1.0764208E+000	-1.0774505E+000	-2.894917046034539E+001	-1.9241959E+000	38	5.6091607E-001	3.1191299E-002	-1.6383666E+000
2	0	0	1	1.418109988590732E+002	-1.0730870E+000	-1.0742486E+000	-2.685134005732982E+001	-1.9334433E+000	38	5.5868340E-001	2.8845014E-002	-1.6329319E+000
2	0	0	1	1.421443988506508E+002	-1.0697528E+000	-1.0693893E+000	-2.479504721538763E+001	-1.9419997E+000	38	5.5629915E-001	2.6515558E-002	-1.6256886E+000
2	0	0	1	1.424777988422284E+002	-1.0664188E+000	-1.0652221E+000	-2.269403031257093E+001	-1.9498625E+000	38	5.5431765E-001	2.4174184E-002	-1.6195397E+000
2	0	0	1	1.428110988338085E+002	-1.0630859E+000	-1.0624959E+000	-2.065785796428627E+001	-1.9570329E+000	38	5.5201823E-001	2.1948891E-002	-1.6145141E+000
2	0	0	1	1.431443988253886E+002	-1.0597528E+000	-1.0616519E+000	-1.867817169818710E+001	-1.9635347E+000	38	5.4933786E-001	1.9829717E-002	-1.6109898E+000
2	0	0	1	1.434777988169662E+002	-1.0564190E+000	-1.0580264E+000	-1.667677503613939E+001	-1.9693738E+000	38	5.4695529E-001	1.7644469E-002	-1.6049817E+000
2	0	0	1	1.438111988085439E+002	-1.0530849E+000	-1.0528970E+000	-1.464475675592425E+001	-1.9745409E+000	38	5.4397655E-001	1.5419420E-002	-1.5968735E+000
2	0	0	1	1.441445988001215E+002	-1.0497509E+000	-1.0493243E+000	-1.262798434259886E+001	-1.9790331E+000	38	5.4093194E-001	1.3250850E-002	-1.5902562E+000
2	0	0	1	1.444779987916991E+002	-1.0464168E+000	-1.0479054E+000	-1.060180449119954E+001	-1.9828507E+000	38	5.3709251E-001	1.1109688E-002	-1.5849979E+000
2	0	0	1	1.448113987832767E+002	-1.0430828E+000	-1.0440382E+000	-8.514783874867511E+000	-1.9859811E+000	38	5.3283072E-001	8.8897599E-003	-1.5768689E+000
2	0	0	1	1.451446987748568E+002	-1.0397500E+000	-1.0399562E+000	-6.332405375821992E+000	-1.9883986E+000	38	5.2815425E-001	6.5854243E-003	-1.5681105E+000
2	0	0	1	1.454946987660151E+002	-1.0362496E+000	-1.0365379E+000	-3.884214140706844E+000	-1.9901093E+000	38	5.2158868E-001	4.0261350E-003	-1.5581266E+000
2	0	0	1	1.458447987571708E+002	-1.0327491E+000	-1.0330399E+000	-1.261984005839050E+000	-1.9909695E+000	39	5.1157224E-001	1.3036799E-003	-1.5446122E+000
2	1	0	1	1.461781987487484E+002	-1.0294147E+000	-1.0314081E+000	1.377718337860962E+000	-1.9908911E+000	39	4.9740076E-001	-1.4209899E-003	-1.5288088E+000
2	1	0	1	1.465115987403260E+002	-1.0260810E+000	-1.0268313E+000	4.071263957191931E+000	-1.9899223E+000	39	4.7636029E-001	-4.1805012E-003	-1.5031916E+000
2	1	0	1	1.468448987319061E+002	-1.0227482E+000	-1.0214754E+000	6.712635162129686E+000	-1.9880639E+000	39	4.4986728E-001	-6.8567921E-003	-1.4713427E+000
2	1	0	1	1.471781987234863E+002	-1.0194148E+000	-1.0180060E+000	9.176061493461802E+000	-1.9853550E+000	39	4.1870072E-001	-9.3412856E-003	-1.4367067E+000
2	1	0	1	1.475449987142201E+002	-1.0157471E+000	-1.0197290E+000	1.126275601980015E+001	-1.9815210E+000	38	3.8443744E-001	-1.1484959E-002	-1.4041665E+000
2	1	0	1	1.478783987057977E+002	-1.0124127E+000	-1.0123254E+000	1.230903214206657E+001	-1.9775385E+000	38	3.5755238E-001	-1.2460746E-002	-1.3698778E+000
2	1	0	1	1.482117986973753E+002	-1.0090790E+000	-1.0124071E+000	1.258443728278652E+001	-1.9733417E+000	38	3.3608216E-001	-1.2740573E-002	-1.3484893E+000
2	1	0	1	1.485450986889555E+002	-1.0057459E+000	-1.0071759E+000	1.254464655701480E+001	-1.9691123E+000	38	3.2074425E-001	-1.2634666E-002	-1.3279202E+000
2	1	0	1	1.488783986805356E+002	-1.0024129E+000	-1.0031430E+000	1.252219282154688E+001	-1.9648942E+000	38	3.0891109E-001	-1.2561549E-002	-1.3120540E+000
2	1	0	1	1.492117986721132E+002	-9.9907893E-001	-9.9988854E-001	1.266769111562544E+001	-1.9606538E+000	38	2.9835975E-001	-1.2666279E-002	-1.2982483E+000
2	1	0	1	1.495451986636908E+002	-9.9574482E-001	-9.9842805E-001	1.286796867259208E+001	-1.9563535E+000	38	2.8824350E-001	-1.2847741E-002	-1.2866715E+000
2	1	0	1	1.498785986552684E+002	-9.9241108E-001	-9.9447405E-001	1.316494354362038E+001	-1.9519670E+000	38	2.7896902E-001	-1.3092195E-002	-1.2734431E+000
2	1	0	1	1.502119986468460E+002	-9.8907679E-001	-9.8837763E-001	1.362568619261174E+001	-1.9474535E+000	38	2.6824740E-001	-1.3467323E-002	-1.2566251E+000
2	1	0	1	1.505453986384236E+002	-9.8574287E-001	-9.8720229E-001	1.418592510630430E+001	-1.9427680E+000	38	2.5697228E-001	-1.4004378E-002	-1.2441746E+000
2	1	0	1	1.508786986300038E+002	-9.8240995E-001	-9.8249799E-001	1.473969889183940E+001	-1.9378970E+000	38	2.4289334E-001	-1.4481724E-002	-1.2253914E+000
2	1	0	1	1.512119986215839E+002	-9.7907680E-001	-9.7819179E-001	1.521549202486489E+001	-1.9328529E+000	38	2.2339812E-001	-1.4883669E-002	-1.2015899E+000
2	1	0	1	1.515453986131615E+002	-9.7574323E-001	-9.7680688E-001	1.555082304482559E+001	-1.9276729E+000	38	1.8523337E-001	-1.5190151E-002	-1.1620402E+000
2	1	0	1	1.518787986047391E+002	-9.7240895E-001	-9.7289640E-001	1.567496671781790E+001	-1.9224176E+000	38	7.6572627E-002	-1.5250118E-002	-1.0494690E+000
2	1	0	1	1.522121985963167E+002	-9.6907502E-001	-9.6724486E-001	1.593488668660245E+001	-1.9170986E+000	38	-1.2460923E-001	-1.5412937E-002	-8.4263563E-001
2	1	0	1	1.525455985878943E+002	-9.6574086E-001	-9.6663672E-001	1.629180937540391E+001	-1.9116772E+000	38	-6.3664269E-001	-1.5748261E-002	-3.2999402E-001
2	1	0	1	1.528789985794720E+002	-9.6240687E-001	-9.6194446E-001	1.684327538823419E+001	-1.9060999E+000	38	-8.2678062E-001	-1.6202295E-002	-1.3516384E-001
2	1	0	1	1.532122985710521E+002	-9.5907390E-001	-9.6001989E-001	1.733243712134549E+001	-1.9003508E+000	38	-8.7721568E-001	-1.6639484E-002	-8.2804203E-002
2	1	0	1	1.535455985626322E+002	-9.5574087E-001	-9.5470971E-001	1.793045592098053E+001	-1.8944186E+000	38	-9.1566044E-001	-1.7118379E-002	-3.9049268E-002
2	1	0	1	1.538789985542098E+002	-9.5240712E-001	-9.5136583E-001	1.864871725687965E+001	-1.8882625E+000	38	-9.4786769E-001	-1.7741753E-002	-3.4981370E-003
2	1	0	1	1.540790985491549E+002	-9.5040607E-001	-9.5074904E-001	1.910874313312564E+001	-1.8844748E+000	38	-9.6495265E-001	-1.8167619E-002	1.4203608E-002
2	1	0	1	1.541031985485461E+002	-9.4990587E-001	-9.5167148E-001	1.924378987905142E+001	-1.8840102E+000	38	-9.6665555E-001	-1.8313766E-002	1.4984071E-002
2	0	0	0	2.477325961832685E+002	-1.2529407E+000	-1.2513890E+000	-2.039490172442268E+002	-7.2584287E-003	37	6.4208078E-001	2.5521955E-001	-1.8934698E+000
2	0	0	1	2.479159961786354E+002	-1.2511076E+000	-1.2508372E+000	-2.003550121365556E+002	-4.4055860E-002	37	6.4055133E-001	2.5061151E-001	-1.8913885E+000
2	0	0	1	2.482493961702130E+002	-1.2477731E+000	-1.2486753E+000	-1.960357092574120E+002	-1.1004706E-001	37	6.3939762E-001	2.4478495E-001	-1.8880730E+000
2	0	0	1	2.485827961617906E+002	-1.2444394E+000	-1.2434437E+000	-1.916829276940152E+002	-1.7460418E-001	37	6.3773805E-001	2.3834693E-001	-1.8811817E+000
2	0	0	1	2.489160961533707E+002	-1.2411064E+000	-1.2424877E+000	-1.874167297453384E+002	-2.3770879E-001	37	6.3609535E-001	2.3286298E-001	-1.8785830E+000
2	0	0	1	2.492493961449509E+002	-1.2377733E+000	-1.2401562E+000	-1.832770273796100E+002	-2.9941070E-001	37	6.3492107E-001	2.2729214E-001	-1.8750772E+000
2	0	0	1	2.495827961365285E+002	-1.2344393E+000	-1.2350286E+000	-1.792223346043889E+002	-3.5975987E-001	37	6.3352102E-001	2.2134471E-001	-1.8685496E+000
2	0	0	1	2.499161961281061E+002	-1.2311051E+000	-1.2311924E+000	-1.750337554829860E+002	-4.1874033E-001	37	6.3203257E-001	2.1550022E-001	-1.8632250E+000
2	0	0	1	2.502495961196837E+002	-1.2277713E+000	-1.2286736E+000	-1.708794546367095E+002	-4.7632778E-001	37	6.3046265E-001	2.0995507E-001	-1.8591362E+000
2	0	0	1	2.505829961112613E+002	-1.2244372E+000	-1.2254316E+000	-1.666959625175728E+002	-5.3252357E-001	37	6.2835950E-001	2.0427449E-001	-1.8537910E+000
2	0	0	1	2.509163961028389E+002	-1.2211034E+000	-1.2212284E+000	-1.627508431186498E+002	-5.8737034E-001	37	6.2756491E-001	1.9875595E-001	-1.8487933E+000
2	0	0	1	2.512496960944191E+002	-1.2177705E+000	-1.2184138E+000	-1.586781813453572E+002	-6.4086622E-001	37	6.2552267E-001	1.9333570E-001	-1.8439364E+000
2	0	0	1	2.515829960859992E+002	-1.2144372E+000	-1.2136368E+000	-1.548703478595029E+002	-6.9304544E-001	37	6.2453717E-001	1.8795635E-001	-1.8381739E+000
2	0	0	1	2.519163960775768E+002	-1.2111033E+000	-1.2109675E+000	-1.509478914023391E+002	-7.4395603E-001	37	6.2305719E-001	1.8279299E-001	-1.8340247E+000
2	0	0	1	2.522497960691544E+002	-1.2077690E+000	-1.2079980E+000	-1.470692942539040E+002	-7.9356855E-001	37	6.2107027E-001	1.7765942E-001	-1.8290683E+000
2	0	0	1	2.525831960607320E+002	-1.2044355E+000	-1.2046001E+000	-1.432917664487006E+002	-8.4189278E-001	37	6.1984807E-001	1.7260927E-001	-1.8244481E+000
2	0	0	1	2.529165960523096E+002	-1.2011011E+000	-1.2010773E+000	-1.394123201419875E+002	-8.8894975E-001	37	6.1762094E-001	1.6744497E-001	-1.8186983E+000
2	0	0	1	2.532499960438872E+002	-1.1977673E+000	-1.1997416E+000	-1.356210209778837E+002	-9.3472481E-001	37	6.1640358E-001	1.6271017E-001	-1.8161452E+000
2	0	0	1	2.535832960354674E+002	-1.1944344E+000	-1.1955228E+000	-1.318446088497326E+002	-9.7922653E-001	37	6.1531121E-001	1.5762323E-001	-1.8108339E+000
2	0	0	1	2.539165960270475E+002	-1.1911012E+000	-1.1899236E+000	-1.282061296863154E+002	-1.0224930E+000	37	6.1352503E-001	1.5255551E-001	-1.8034487E+000
2	0	0	1	2.542499960186251E+002	-1.1877675E+000	-1.1859039E+000	-1.243592510984578E+002	-1.0645238E+000	37	6.1162788E-001	1.4747812E-001	-1.7975318E+000
2	0	0	1	2.545833960102027E+002	-1.1844332E+000	-1.1841526E+000	-1.207167500614041E+002	-1.1053110E+000	37	6.1054254E-001	1.4294705E-001	-1.7946951E+000
2	0	0	1	2.549167960017803E+002	-1.1810994E+000	-1.1805285E+000	-1.170878699215175E+002	-1.1448864E+000	37	6.0848588E-001	1.3822557E-001	-1.7890143E+000
2	0	0	1	2.552501959933579E+002	-1.1777650E+000	-1.1802011E+000	-1.134730712315400E+002	-1.1832532E+000	37	6.0662758E-001	1.3392104E-001	-1.7868286E+000
2	0	0	1	2.555835959849355E+002	-1.1744313E+000	-1.1766442E+000	-1.097878519340322E+002	-1.2204028E+000	37	6.0539001E-001	1.2918124E-001	-1.7820342E+000
2	0	0	1	2.559168959765157E+002	-1.1710984E+000	-1.1719282E+000	-1.062626826311480E+002	-1.2563412E+000	37	6.0365534E-001	1.2453223E-001	-1.7755835E+000
2	0	0	1	2.562501959680958E+002	-1.1677651E+000	-1.1688141E+000	-1.027896790587077E+002	-1.2911081E+000	37	6.0207123E-001	1.2014202E-001	-1.7708852E+000
2	0	0	1	2.565835959596734E+002	-1.1644313E+000	-1.1647482E+000	-9.944520420652918E+001	-1.3247598E+000	37	6.0022038E-001	1.1582862E-001	-1.7649686E+000
2	0	0	1	2.569169959512510E+002	-1.1610970E+000	-1.1595869E+000	-9.587657449116728E+001	-1.3572520E+000	37	5.9864950E-001	1.1117722E-001	-1.7582364E+000
2	0	0	1	2.572503959428286E+002	-1.1577634E+000	-1.1574475E+000	-9.249704506493890E+001	-1.3885858E+000	37	5.9711856E-001	1.0706047E-001	-1.7545660E+000
2	0	0	1	2.575837959344062E+002	-1.1544293E+000	-1.1550816E+000	-8.911245936353089E+001	-1.4187942E+000	37	5.9517246E-001	1.0293216E-001	-1.7502542E+000
2	0	0	1	2.579171959259838E+002	-1.1510954E+000	-1.1517316E+000	-8.589252333442221E+001	-1.4478987E+000	37	5.9356999E-001	9.8925136E-002	-1.7453016E+000
2	0	0	1	2.582504959175640E+002	-1.1477623E+000	-1.1487083E+000	-8.252957388377649E+001	-1.4758991E+000	37	5.9172195E-001	9.4802409E-002	-1.7404304E+000
2	0	0	1	2.585837959091441E+002	-1.1444292E+000	-1.1437654E+000	-7.927617364121988E+001	-1.5028002E+000	37	5.9033823E-001	9.0673350E-002	-1.7341037E+000
2	0	0	1	2.589171959007217E+002	-1.1410955E+000	-1.1425047E+000	-7.614513352350849E+001	-1.5286453E+000	37	5.8834362E-001	8.6996175E-002	-1.7308483E+000
2	0	0	1	2.592505958922993E+002	-1.1377612E+000	-1.1396458E+000	-7.301324593444861E+001	-1.5534394E+000	37	5.8698320E-001	8.3209239E-002	-1.7266290E+000
2	0	0	1	2.595839958838769E+002	-1.1344274E+000	-1.1343602E+000	-7.000017327949627E+001	-1.5772166E+000	37	5.8526605E-001	7.9405412E-002	-1.7196262E+000
2	0	0	1	2.599173958754545E+002	-1.1310930E+000	-1.1318486E+000	-6.685801040997910E+001	-1.5999683E+000	37	5.8350271E-001	7.5673141E-002	-1.7153513E+000
2	0	0	1	2.602507958670321E+002	-1.1277593E+000	-1.1280632E+000	-6.382014473672818E+001	-1.6216887E+000	37	5.8116597E-001	7.1993157E-002	-1.7092292E+000
2	0	0	1	2.605840958586123E+002	-1.1244262E+000	-1.1255884E+000	-6.088503426039301E+001	-1.6424025E+000	37	5.7980460E-001	6.8531491E-002	-1.7053931E+000
2	0	0	1	2.609173958501924E+002	-1.1210933E+000	-1.1219149E+000	-5.791723415014769E+001	-1.6621360E+000	37	5.7790989E-001	6.4978205E-002	-1.6998248E+000
2	0	0	1	2.612507958417700E+002	-1.1177595E+000	-1.1191404E+000	-5.502771770099400E+001	-1.6809001E+000	37	5.7567149E-001	6.1583742E-002	-1.6948118E+000
2	0	0	1	2.615841958333476E+002	-1.1144251E+000	-1.1119040E+000	-5.232132456131410E+001	-1.6987311E+000	37	5.7405686E-001	5.8176290E-002	-1.6859609E+000
2	0	0	1	2.619175958249252E+002	-1.1110914E+000	-1.1120490E+000	-4.960923254797535E+001	-1.7156619E+000	37	5.7235819E-001	5.5167895E-002	-1.6844072E+000
2	0	0	1	2.622509958165028E+002	-1.1077573E+000	-1.1099045E+000	-4.700315119397354E+001	-1.7317021E+000	37	5.7020617E-001	5.2169010E-002	-1.6801107E+000
2	0	0	1	2.626009958076611E+002	-1.1042571E+000	-1.1043901E+000	-4.423018165682151E+001	-1.7475903E+000	37	5.6844807E-001	4.8847377E-002	-1.6728382E+000
2	0	0	1	2.629509957988193E+002	-1.1007575E+000	-1.1016327E+000	-4.163554666309540E+001	-1.7625854E+000	38	5.6639713E-001	4.5867082E-002	-1.6680298E+000
2	0	0	1	2.632843957903970E+002	-1.0974232E+000	-1.0980477E+000	-3.909634892601753E+001	-1.7759787E+000	38	5.6436926E-001	4.2929657E-002	-1.6624169E+000
2	0	0	1	2.636177957819746E+002	-1.0940894E+000	-1.0943674E+000	-3.658663871104471E+001	-1.7885298E+000	38	5.6245261E-001	4.0039223E-002	-1.6568201E+000
2	0	0	1	2.639511957735522E+002	-1.0907552E+000	-1.0917888E+000	-3.418852197060502E+001	-1.8002642E+000	38	5.6036413E-001	3.7326645E-002	-1.6521529E+000
2	0	0	1	2.642845957651298E+002	-1.0874214E+000	-1.0880978E+000	-3.187770236956010E+001	-1.8112137E+000	38	5.5837613E-001	3.4686059E-002	-1.6464739E+000
2	0	0	1	2.646178957567099E+002	-1.0840882E+000	-1.0863265E+000	-2.963238477164509E+001	-1.8214018E+000	38	5.5602777E-001	3.2190446E-002	-1.6423542E+000
2	0	0	1	2.649511957482900E+002	-1.0807552E+000	-1.0807732E+000	-2.738527446897831E+001	-1.8308380E+000	38	5.5412757E-001	2.9597271E-002	-1.6349008E+000
2	0	0	1	2.652845957398677E+002	-1.0774213E+000	-1.0783918E+000	-2.520562524905074E+001	-1.8395394E+000	38	5.5157167E-001	2.7181540E-002	-1.6299634E+000
2	0	0	1	2.656179957314453E+002	-1.0740871E+000	-1.0732971E+000	-2.303692059008073E+001	-1.8475173E+000	38	5.4958999E-001	2.4725461E-002	-1.6228871E+000
2	0	0	1	2.659513957230229E+002	-1.0707533E+000	-1.0703379E+000	-2.089339521068189E+001	-1.8547736E+000	38	5.4709160E-001	2.2362992E-002	-1.6174295E+000
2	0	0	1	2.662847957146005E+002	-1.0674192E+000	-1.0693892E+000	-1.884771459716615E+001	-1.8613340E+000	38	5.4420429E-001	2.0155543E-002	-1.6135936E+000
2	0	0	1	2.666181957061781E+002	-1.0640854E+000	-1.0674831E+000	-1.686225395374890E+001	-1.8672210E+000	38	5.4188335E-001	1.8000171E-002	-1.6093664E+000
2	0	0	1	2.669514956977582E+002	-1.0607523E+000	-1.0637456E+000	-1.493939036544947E+001	-1.8724542E+000	38	5.3923690E-001	1.5891710E-002	-1.6029825E+000
2	0	0	1	2.672847956893384E+002	-1.0574191E+000	-1.0568283E+000	-1.302349457906925E+001	-1.8770480E+000	38	5.3626788E-001	1.3763597E-002	-1.5930961E+000
2	0	0	1	2.676181956809160E+002	-1.0540856E+000	-1.0557132E+000	-1.107079538028799E+001	-1.8809966E+000	38	5.3311992E-001	1.1687584E-002	-1.5888331E+000
2	0	0	1	2.679515956724936E+002	-1.0507510E+000	-1.0500420E+000	-9.127013934535057E+000	-1.8842945E+000	38	5.2950633E-001	9.5837479E-003	-1.5795484E+000
2	0	0	1	2.682849956640712E+002	-1.0474173E+000	-1.0486100E+000	-7.218143324052562E+000	-1.8869516E+000	38	5.2513939E-001	7.5690169E-003	-1.5737493E+000
2	0	0	1	2.686183956556488E+002	-1.0440830E+000	-1.0459504E+000	-5.306980580883215E+000	-1.8889700E+000	38	5.2043545E-001	5.5508385E-003	-1.5663859E+000
2	0	0	1	2.689517956472264E+002	-1.0407493E+000	-1.0400087E+000	-3.371306303156786E+000	-1.8903465E+000	39	5.1389736E-001	3.5061878E-003	-1.5539060E+000
2	0	0	1	2.692850956388065E+002	-1.0374165E+000	-1.0379239E+000	-1.267718986109792E+000	-1.8910475E+000	39	5.0633860E-001	1.3157959E-003	-1.5442625E+000
2	0	0	1	2.696183956303867E+002	-1.0340831E+000	-1.0354557E+000	9.585545336716095E-001	-1.8910266E+000	39	4.9379095E-001	-9.9254074E-004	-1.5292467E+000
2	1	0	1	2.699517956219643E+002	-1.0307494E+000	-1.0320108E+000	3.358213755615182E+000	-1.8902318E+000	39	4.7679037E-001	-3.4657128E-003	-1.5088012E+000
2	1	0	1	2.702851956135419E+002	-1.0274152E+000	-1.0274445E+000	5.917292687386727E+000	-1.8886076E+000	39	4.5316383E-001	-6.0796896E-003	-1.4806083E+000
2	1	0	1	2.706185956051195E+002	-1.0240813E+000	-1.0258766E+000	8.587506055428435E+000	-1.8861088E+000	39	4.2467803E-001	-8.8097220E-003	-1.4505546E+000
2	1	0	1	2.709852955958559E+002	-1.0204142E+000	-1.0207247E+000	1.154265152284404E+001	-1.8823028E+000	38	3.8977182E-001	-1.1781869E-002	-1.4104965E+000
2	1	0	1	2.713185955874360E+002	-1.0170813E+000	-1.0161297E+000	1.405278147182219E+001	-1.8779535E+000	38	3.5680601E-001	-1.4279449E-002	-1.3729358E+000
2	1	0	1	2.716519955790136E+002	-1.0137472E+000	-1.0167114E+000	1.606073683808251E+001	-1.8728492E+000	38	3.2925949E-001	-1.6329134E-002	-1.3459709E+000
2	1	0	1	2.719853955705912E+002	-1.0104132E+000	-1.0102054E+000	1.708858293682972E+001	-1.8672434E+000	38	3.0873397E-001	-1.7262978E-002	-1.3189393E+000
2	1	0	1	2.723187955621688E+002	-1.0070794E+000	-1.0094166E+000	1.693673298750551E+001	-1.8615017E+000	38	2.9496691E-001	-1.7096220E-002	-1.3043835E+000
2	1	0	1	2.726521955537464E+002	-1.0037453E+000	-1.0043770E+000	1.619546494357388E+001	-1.8559183E+000	38	2.8588325E-001	-1.6266353E-002	-1.2902603E+000
2	1	0	1	2.729855955453240E+002	-1.0004113E+000	-1.0009427E+000	1.552053154054470E+001	-1.8505740E+000	38	2.7689537E-001	-1.5535163E-002	-1.2778381E+000
2	1	0	1	2.733188955369042E+002	-9.9707830E-001	-9.9887311E-001	1.515632052867131E+001	-1.8454009E+000	38	2.6842859E-001	-1.5139241E-002	-1.2673017E+000
2	1	0	1	2.736521955284843E+002	-9.9374521E-001	-9.9321932E-001	1.504542331409819E+001	-1.8403041E+000	38	2.5841784E-001	-1.4943405E-002	-1.2516372E+000
2	1	0	1	2.739855955200619E+002	-9.9041140E-001	-9.9120426E-001	1.513577867451266E+001	-1.8352057E+000	38	2.4673842E-001	-1.5002648E-002	-1.2379427E+000
2	1	0	1	2.743189955116395E+002	-9.8707706E-001	-9.8687774E-001	1.533592015233756E+001	-1.8300579E+000	38	2.2775389E-001	-1.5134678E-002	-1.2146317E+000
2	1	0	1	2.746523955032171E+002	-9.8374343E-001	-9.8212123E-001	1.553285146310935E+001	-1.8248417E+000	38	1.7703621E-001	-1.5255143E-002	-1.1591574E+000
2	1	0	1	2.749857954947947E+002	-9.8040915E-001	-9.8014772E-001	1.568461821609992E+001	-1.8195652E+000	38	4.7532540E-002	-1.5373243E-002	-1.0276803E+000
2	1	0	1	2.753191954863723E+002	-9.7707516E-001	-9.7866094E-001	1.572160749929381E+001	-1.8142587E+000	38	-2.1353640E-001	-1.5386123E-002	-7.6512456E-001
2	1	0	1	2.756524954779525E+002	-9.7374225E-001	-9.7188979E-001	1.584830146483219E+001	-1.8089294E+000	38	-7.1288741E-001	-1.5402802E-002	-2.5900239E-001
2	1	0	1	2.759857954695326E+002	-9.7040927E-001	-9.7005534E-001	1.609253937310876E+001	-1.8035333E+000	38	-8.2809055E-001	-1.5610654E-002	-1.4196479E-001
2	1	0	1	2.763191954611102E+002	-9.6707541E-001	-9.6733099E-001	1.628047350011373E+001	-1.7980665E+000	38	-8.7087637E-001	-1.5748607E-002	-9.6454620E-002
2	1	0	1	2.766525954526878E+002	-9.6374130E-001	-9.6466839E-001	1.659809445864204E+001	-1.7925138E+000	38	-9.0402919E-001	-1.6011657E-002	-6.0639203E-002
2	1	0	1	2.769859954442654E+002	-9.6040744E-001	-9.5988810E-001	1.707150765221797E+001	-1.7868290E+000	38	-9.3335992E-001	-1.6386736E-002	-2.6528180E-002
2	1	0	1	2.773193954358430E+002	-9.5707315E-001	-9.5585215E-001	1.765640087862394E+001	-1.7809666E+000	38	-9.5874000E-001	-1.6876908E-002	2.8878450E-003
2	1	0	1	2.776527954274206E+002	-9.5373929E-001	-9.5495522E-001	1.838197455559055E+001	-1.7748828E+000	38	-9.8001570E-001	-1.7553963E-002	2.5060475E-002
2	1	0	1	2.779193954206858E+002	-9.5107335E-001	-9.5260108E-001	1.902233295999464E+001	-1.7698554E+000	38	-9.9640673E-001	-1.8120695E-002	4.3805659E-002
2	1	0	0	2.780101954183920E+002	-9.4990587E-001	-9.5175552E-001	1.982538218111605E+001	-1.7681041E+000	38	-1.0016779E+000	-1.8868918E-002	4.9922347E-002
2	0	0	0	3.720729930421658E+002	-1.2489402E+000	-1.2501209E+000	-1.984247732723460E+002	-7.0662941E-003	37	6.3520133E-001	2.4805495E-001	-1.8853222E+000
2	0	0	1	3.722563930375327E+002	-1.2471070E+000	-1.2494234E+000	-1.961443268883445E+002	-4.3058779E-002	37	6.3433748E-001	2.4506731E-001	-1.8837609E+000
2	0	0	1	3.725897930291103E+002	-1.2437726E+000	-1.2477903E+000	-1.919047347214637E+002	-1.0764594E-001	37	6.3229620E-001	2.3945688E-001	-1.8800865E+000
2	0	0	1	3.729231930206879E+002	-1.2404389E+000	-1.2366587E+000	-1.878153820716884E+002	-1.7084773E-001	37	6.3122511E-001	2.3226352E-001	-1.8678838E+000
2	0	0	1	3.732564930122680E+002	-1.2371058E+000	-1.2383751E+000	-1.835221699660291E+002	-2.3263629E-001	37	6.3006365E-001	2.2726928E-001	-1.8684387E+000
2	0	0	1	3.735897930038482E+002	-1.2337728E+000	-1.2359531E+000	-1.793466647112522E+002	-2.9301193E-001	37	6.2841052E-001	2.2166407E-001	-1.8643637E+000
2	0	0	1	3.739231929954258E+002	-1.2304392E+000	-1.2314045E+000	-1.750719141498641E+002	-3.5199946E-001	37	6.2702948E-001	2.1558435E-001	-1.8584340E+000
2	0	0	1	3.742565929870034E+002	-1.2271045E+000	-1.2284000E+000	-1.711446254042967E+002	-4.0962052E-001	37	6.2556165E-001	2.1023406E-001	-1.8539617E+000
2	0	0	1	3.745899929785810E+002	-1.2237710E+000	-1.2237906E+000	-1.668823210154380E+002	-4.6587592E-001	37	6.2399763E-001	2.0422903E-001	-1.8477883E+000
2	0	0	1	3.749233929701586E+002	-1.2204369E+000	-1.2225899E+000	-1.628669835305004E+002	-5.2074784E-001	37	6.2257105E-001	1.9911952E-001	-1.8451610E+000
2	0	0	1	3.752567929617362E+002	-1.2171029E+000	-1.2171540E+000	-1.593513742133341E+002	-5.7435971E-001	37	6.2104160E-001	1.9395517E-001	-1.8381956E+000
2	0	0	1	3.755900929533163E+002	-1.2137698E+000	-1.2133838E+000	-1.553667113973800E+002	-6.2671191E-001	37	6.1932528E-001	1.8851945E-001	-1.8327091E+000
2	0	0	1	3.759233929448965E+002	-1.2104368E+000	-1.2113322E+000	-1.513499570576130E+002	-6.7772758E-001	37	6.1752564E-001	1.8333508E-001	-1.8288579E+000
2	0	0	1	3.762567929364741E+002	-1.2071029E+000	-1.2085491E+000	-1.474015561381038E+002	-7.2742754E-001	37	6.1619747E-001	1.7814203E-001	-1.8247466E+000
2	0	0	1	3.765901929280517E+002	-1.2037686E+000	-1.2044408E+000	-1.435797572474333E+002	-7.7584028E-001	37	6.1507356E-001	1.7293333E-001	-1.8195144E+000
2	0	0	1	3.769235929196293E+002	-1.2004349E+000	-1.2010409E+000	-1.395338295597282E+002	-8.2293308E-001	37	6.1301953E-001	1.6758583E-001	-1.8140604E+000
2	0	0	1	3.772569929112069E+002	-1.1971008E+000	-1.1974344E+000	-1.357852460355653E+002	-8.6873120E-001	37	6.1178583E-001	1.6259393E-001	-1.8092203E+000
2	0	0	1	3.775903929027845E+002	-1.1937668E+000	-1.1943004E+000	-1.318998219849468E+002	-9.1325551E-001	37	6.1005354E-001	1.5752801E-001	-1.8043540E+000
2	0	0	1	3.779236928943646E+002	-1.1904339E+000	-1.1905713E+000	-1.281957386428567E+002	-9.5650548E-001	37	6.0848260E-001	1.5262617E-001	-1.7990539E+000
2	0	0	1	3.782569928859448E+002	-1.1871008E+000	-1.1874799E+000	-1.243038971810149E+002	-9.9848866E-001	37	6.0675752E-001	1.4760837E-001	-1.7942374E+000
2	0	0	1	3.785903928775224E+002	-1.1837671E+000	-1.1843274E+000	-1.206089523726923E+002	-1.0392107E+000	37	6.0529512E-001	1.4284049E-001	-1.7896225E+000
2	0	0	1	3.789237928691000E+002	-1.1804327E+000	-1.1805496E+000	-1.167915510540552E+002	-1.0786850E+000	37	6.0356867E-001	1.3787822E-001	-1.7841183E+000
2	0	0	1	3.792571928606776E+002	-1.1770991E+000	-1.1769685E+000	-1.130245719272912E+002	-1.1168907E+000	37	6.0216886E-001	1.3302636E-001	-1.7791374E+000
2	0	0	1	3.795905928522552E+002	-1.1737646E+000	-1.1734923E+000	-1.096435795851685E+002	-1.1539094E+000	37	6.0049665E-001	1.2866589E-001	-1.7739890E+000
2	0	0	1	3.799239928438328E+002	-1.1704308E+000	-1.1707110E+000	-1.059261949134773E+002	-1.1897426E+000	37	5.9880614E-001	1.2400897E-001	-1.7695172E+000
2	0	0	1	3.802572928354130E+002	-1.1670982E+000	-1.1670864E+000	-1.023045056656053E+002	-1.2243428E+000	37	5.9730631E-001	1.1939819E-001	-1.7643926E+000
2	0	0	1	3.805905928269931E+002	-1.1637647E+000	-1.1645705E+000	-9.864955314798146E+001	-1.2577294E+000	37	5.9531254E-001	1.1488435E-001	-1.7598829E+000
2	0	0	1	3.809239928185707E+002	-1.1604309E+000	-1.1609499E+000	-9.506232541825625E+001	-1.2899164E+000	37	5.9367275E-001	1.1036260E-001	-1.7546227E+000
2	0	0	1	3.812573928101483E+002	-1.1570967E+000	-1.1577349E+000	-9.167032165603973E+001	-1.3209440E+000	37	5.9191024E-001	1.0612993E-001	-1.7496451E+000
2	0	0	1	3.815907928017259E+002	-1.1537629E+000	-1.1549872E+000	-8.814552026409092E+001	-1.3508190E+000	37	5.9010518E-001	1.0180695E-001	-1.7450924E+000
2	0	0	1	3.819241927933035E+002	-1.1504287E+000	-1.1522974E+000	-8.484649048255392E+001	-1.3795536E+000	37	5.8845121E-001	9.7768389E-002	-1.7407486E+000
2	0	0	1	3.822575927848811E+002	-1.1470948E+000	-1.1483004E+000	-8.150196053580828E+001	-1.4071845E+000	37	5.8708948E-001	9.3588732E-002	-1.7353899E+000
2	0	0	1	3.825908927764613E+002	-1.1437619E+000	-1.1453797E+000	-7.815554284985524E+001	-1.4336857E+000	37	5.8512521E-001	8.9517772E-002	-1.7305049E+000
2	0	0	1	3.829241927680414E+002	-1.1404288E+000	-1.1407775E+000	-7.489005900349889E+001	-1.4590886E+000	37	5.8353740E-001	8.5432895E-002	-1.7243149E+000
2	0	0	1	3.832575927596190E+002	-1.1370950E+000	-1.1370203E+000	-7.169923400809046E+001	-1.4834234E+000	37	5.8166689E-001	8.1523485E-002	-1.7186873E+000
2	0	0	1	3.835909927511966E+002	-1.1337608E+000	-1.1335422E+000	-6.848870110767166E+001	-1.5066931E+000	37	5.7970887E-001	7.7634834E-002	-1.7132511E+000
2	0	0	1	3.839243927427742E+002	-1.1304270E+000	-1.1316422E+000	-6.555692881754487E+001	-1.5289407E+000	37	5.7801020E-001	7.4186988E-002	-1.7096524E+000
2	0	0	1	3.842577927343518E+002	-1.1270927E+000	-1.1277764E+000	-6.252582323675051E+001	-1.5501981E+000	37	5.7618463E-001	7.0515148E-002	-1.7039610E+000
2	0	0	1	3.845911927259294E+002	-1.1237589E+000	-1.1241013E+000	-5.944455292334226E+001	-1.5704322E+000	37	5.7436776E-001	6.6821702E-002	-1.6984690E+000
2	0	0	1	3.849244927175096E+002	-1.1204258E+000	-1.1232212E+000	-5.650134542806154E+001	-1.5896581E+000	37	5.7244575E-001	6.3463509E-002	-1.6956669E+000
2	0	0	1	3.852578927090872E+002	-1.1170919E+000	-1.1159312E+000	-5.363519648390749E+001	-1.6079251E+000	37	5.7052523E-001	5.9853185E-002	-1.6864564E+000
2	0	0	1	3.855911927006673E+002	-1.1137590E+000	-1.1146016E+000	-5.077543863349501E+001	-1.6252328E+000	37	5.6867325E-001	5.6594387E-002	-1.6832749E+000
2	0	0	1	3.859245926922449E+002	-1.1104248E+000	-1.1114494E+000	-4.801700316308677E+001	-1.6416091E+000	37	5.6655806E-001	5.3368468E-002	-1.6780074E+000
2	0	0	1	3.862746926834006E+002	-1.1069241E+000	-1.1070386E+000	-4.528873727651410E+001	-1.6578166E+000	37	5.6485975E-001	5.0136380E-002	-1.6718984E+000
2	0	0	1	3.866246926745589E+002	-1.1034238E+000	-1.1019174E+000	-4.241611188700421E+001	-1.6730831E+000	38	5.6286234E-001	4.6739053E-002	-1.6647797E+000
2	0	0	1	3.869579926661390E+002	-1.1000907E+000	-1.1008196E+000	-3.977512008855740E+001	-1.6866918E+000	38	5.6036359E-001	4.3785233E-002	-1.6611831E+000
2	0	0	1	3.872913926577166E+002	-1.0967571E+000	-1.0958046E+000	-3.732096760552383E+001	-1.6994574E+000	38	5.5863136E-001	4.0896486E-002	-1.6544359E+000
2	0	0	1	3.876247926492943E+002	-1.0934227E+000	-1.0966268E+000	-3.486641236094931E+001	-1.7114053E+000	38	5.5685472E-001	3.8235441E-002	-1.6534815E+000
2	0	0	1	3.879581926408719E+002	-1.0900888E+000	-1.0886017E+000	-3.239173226917683E+001	-1.7225319E+000	38	5.5451810E-001	3.5261694E-002	-1.6431198E+000
2	0	0	1	3.882915926324495E+002	-1.0867548E+000	-1.0873901E+000	-3.003743489002818E+001	-1.7328572E+000	38	5.5225545E-001	3.2662407E-002	-1.6396456E+000
2	0	0	1	3.886249926240271E+002	-1.0834209E+000	-1.0852654E+000	-2.770186508416617E+001	-1.7423986E+000	38	5.5019945E-001	3.0063875E-002	-1.6354649E+000
2	0	0	1	3.889582926156072E+002	-1.0800881E+000	-1.0783942E+000	-2.544298765401784E+001	-1.7511756E+000	38	5.4808837E-001	2.7437570E-002	-1.6264825E+000
2	0	0	1	3.892915926071873E+002	-1.0767547E+000	-1.0733089E+000	-2.331718803345852E+001	-1.7592247E+000	38	5.4573572E-001	2.5026547E-002	-1.6190447E+000
2	0	0	1	3.896249925987649E+002	-1.0734210E+000	-1.0719795E+000	-2.116616304976810E+001	-1.7665622E+000	38	5.4330659E-001	2.2689693E-002	-1.6152861E+000
2	0	0	1	3.899583925903426E+002	-1.0700867E+000	-1.0663325E+000	-1.905324439457689E+001	-1.7731915E+000	38	5.4059196E-001	2.0317093E-002	-1.6069244E+000
2	0	0	1	3.902917925819202E+002	-1.0667529E+000	-1.0657314E+000	-1.692997863788531E+001	-1.7791171E+000	38	5.3862971E-001	1.8042810E-002	-1.6043611E+000
2	0	0	1	3.906251925734978E+002	-1.0634187E+000	-1.0658894E+000	-1.495803899496124E+001	-1.7843615E+000	38	5.3541321E-001	1.5943615E-002	-1.6013026E+000
2	0	0	1	3.909585925650754E+002	-1.0600849E+000	-1.0600637E+000	-1.295251672178797E+001	-1.7889436E+000	38	5.3250325E-001	1.3730493E-002	-1.5925670E+000
2	0	0	1	3.912918925566555E+002	-1.0567517E+000	-1.0582547E+000	-1.094841269843502E+001	-1.7928582E+000	38	5.2948862E-001	1.1586210E-002	-1.5877433E+000
2	0	0	1	3.916251925482356E+002	-1.0534188E+000	-1.0521533E+000	-9.026638285513400E+000	-1.7961209E+000	38	5.2587968E-001	9.4974078E-003	-1.5780330E+000
2	0	0	1	3.919585925398133E+002	-1.0500851E+000	-1.0511945E+000	-7.147183718135437E+000	-1.7987506E+000	38	5.2173656E-001	7.5130807E-003	-1.5729311E+000
2	0	0	1	3.922919925313909E+002	-1.0467509E+000	-1.0470271E+000	-5.249215139931078E+000	-1.8007519E+000	38	5.1707798E-001	5.4960707E-003	-1.5641050E+000
2	0	0	1	3.926253925229685E+002	-1.0434170E+000	-1.0447897E+000	-3.363928371815195E+000	-1.8021338E+000	38	5.1092052E-001	3.5145977E-003	-1.5557102E+000
2	0	0	1	3.929587925145461E+002	-1.0400827E+000	-1.0392905E+000	-1.383939939044073E+000	-1.8028705E+000	39	5.0320339E-001	1.4383157E-003	-1.5424939E+000
2	1	0	1	3.932921925061237E+002	-1.0367488E+000	-1.0367916E+000	7.115040854754930E-001	-1.8029197E+000	39	4.9196467E-001	-7.3768146E-004	-1.5287563E+000
2	1	0	1	3.936254924977038E+002	-1.0334160E+000	-1.0352556E+000	2.955815334585594E+000	-1.8022453E+000	39	4.7707409E-001	-3.0600242E-003	-1.5123296E+000
2	1	0	1	3.939587924892840E+002	-1.0300826E+000	-1.0297564E+000	5.371246757857062E+000	-1.8007938E+000	39	4.5541734E-001	-5.5310759E-003	-1.4851737E+000
2	1	0	1	3.942921924808616E+002	-1.0267491E+000	-1.0252607E+000	7.973543728269590E+000	-1.7985040E+000	39	4.2917293E-001	-8.1749605E-003	-1.4544337E+000
2	1	0	1	3.946255924724392E+002	-1.0234146E+000	-1.0249356E+000	1.071497719071634E+001	-1.7953109E+000	39	3.9833170E-001	-1.0982161E-002	-1.4232674E+000
2	1	0	1	3.949589924640168E+002	-1.0200808E+000	-1.0209737E+000	1.346095444446918E+001	-1.7912011E+000	38	3.6481383E-001	-1.3743280E-002	-1.3857875E+000
2	1	0	1	3.952923924555944E+002	-1.0167470E+000	-1.0161006E+000	1.601659158763985E+001	-1.7862204E+000	38	3.3508423E-001	-1.6274469E-002	-1.3511848E+000
2	1	0	1	3.956257924471720E+002	-1.0134128E+000	-1.0142438E+000	1.800242596012572E+001	-1.7804854E+000	38	3.1109053E-001	-1.8258849E-002	-1.3253343E+000
2	1	0	1	3.959590924387521E+002	-1.0100800E+000	-1.0117295E+000	1.878663709453565E+001	-1.7742991E+000	38	2.9444918E-001	-1.9006995E-002	-1.3061787E+000
2	1	0	1	3.962923924303323E+002	-1.0067466E+000	-1.0057704E+000	1.823355879944424E+001	-1.7680902E+000	38	2.8481713E-001	-1.8338775E-002	-1.2905875E+000
2	1	0	1	3.966257924219099E+002	-1.0034130E+000	-1.0039121E+000	1.721653794190260E+001	-1.7621517E+000	38	2.7644867E-001	-1.7283890E-002	-1.2803607E+000
2	1	0	1	3.969591924134875E+002	-1.0000788E+000	-9.9983442E-001	1.643279239232345E+001	-1.7565163E+000	38	2.6862955E-001	-1.6430071E-002	-1.2684640E+000
2	1	0	1	3.972925924050651E+002	-9.9674493E-001	-9.9737495E-001	1.595950855661044E+001	-1.7510860E+000	38	2.6037374E-001	-1.5917614E-002	-1.2577487E+000
2	1	0	1	3.976259923966427E+002	-9.9341071E-001	-9.9357671E-001	1.575633457926486E+001	-1.7457663E+000	38	2.5033483E-001	-1.5655126E-002	-1.2439115E+000
2	1	0	1	3.979593923882203E+002	-9.9007672E-001	-9.9144077E-001	1.573442683366520E+001	-1.7404834E+000	38	2.3570932E-001	-1.5599752E-002	-1.2271501E+000
2	1	0	1	3.982926923798004E+002	-9.8674399E-001	-9.8856050E-001	1.574857786532334E+001	-1.7352005E+000	38	1.9678386E-001	-1.5568422E-002	-1.1853443E+000
2	1	0	1	3.986260923713780E+002	-9.8340982E-001	-9.8486221E-001	1.575386563288498E+001	-1.7299138E+000	38	8.4596410E-002	-1.5515387E-002	-1.0694586E+000
2	1	0	1	3.989593923629582E+002	-9.8007697E-001	-9.8096555E-001	1.578540443594022E+001	-1.7246214E+000	38	-1.3592501E-001	-1.5484938E-002	-8.4504056E-001
2	1	0	1	3.992927923545358E+002	-9.7674280E-001	-9.7553706E-001	1.579618354328042E+001	-1.7193240E+000	38	-6.5050519E-001	-1.5409762E-002	-3.2503188E-001
2	1	0	1	3.996261923461134E+002	-9.7340882E-001	-9.7370273E-001	1.601323503197784E+001	-1.7139858E+000	38	-8.1774271E-001	-1.5592131E-002	-1.5596002E-001
2	1	0	1	3.999595923376910E+002	-9.7007489E-001	-9.6960574E-001	1.612798271577640E+001	-1.7085953E+000	38	-8.6292154E-001	-1.5637785E-002	-1.0668421E-001
2	1	0	1	4.002929923292686E+002	-9.6674073E-001	-9.6785969E-001	1.642343872063333E+001	-1.7031343E+000	38	-8.9678526E-001	-1.5895585E-002	-7.1074426E-002
2	1	0	1	4.006263923208462E+002	-9.6340704E-001	-9.6314257E-001	1.685839438422448E+001	-1.6975495E+000	38	-9.2712402E-001	-1.6237037E-002	-3.6018550E-002
2	1	0	1	4.009596923124263E+002	-9.6007377E-001	-9.5900184E-001	1.739100804412894E+001	-1.6918044E+000	38	-9.5354885E-001	-1.6678009E-002	-5.4529905E-003
2	1	0	1	4.012929923040065E+002	-9.5674098E-001	-9.5467037E-001	1.806820812478054E+001	-1.6858568E+000	38	-9.7678828E-001	-1.7249184E-002	2.2117913E-002
2	1	0	1	4.016263922955841E+002	-9.5340669E-001	-9.5152324E-001	1.886286190059229E+001	-1.6796616E+000	38	-9.9770910E-001	-1.7948452E-002	4.6185851E-002
2	1	0	1	4.018764922892660E+002	-9.5090592E-001	-9.4919252E-001	1.949855956749531E+001	-1.6748579E+000	38	-1.0124506E+000	-1.8507887E-002	6.3258052E-002
2	1	0	0	4.019505922873941E+002	-9.4990587E-001	-9.5029247E-001	1.994591893376531E+001	-1.6734016E+000	38	-1.0184965E+000	-1.8954456E-002	6.8204045E-002
2	0	0	0	4.968135898909532E+002	-1.2502737E+000	-1.2591895E+000	-2.024196250765931E+002	-7.2071995E-003	37	6.3128614E-001	2.5488466E-001	-1.8904756E+000
2	0	0	1	4.969969898863201E+002	-1.2484405E+000	-1.2507471E+000	-1.993783619927372E+002	-4.3803047E-002	37	6.3112241E-001	2.4937190E-001	-1.8818696E+000
2	0	0	1	4.973303898778977E+002	-1.2451061E+000	-1.2423828E+000	-1.949574002681470E+002	-1.0944762E-001	37	6.2920648E-001	2.4221171E-001	-1.8715892E+000
2	0	0	1	4.976637898694753E+002	-1.2417724E+000	-1.2356887E+000	-1.908754069964061E+002	-1.7368171E-001	37	6.2779593E-001	2.3586258E-001	-1.8634846E+000
2	0	0	1	4.979970898610554E+002	-1.2384394E+000	-1.2363666E+000	-1.866850317891351E+002	-2.3651287E-001	37	6.2645549E-001	2.3081115E-001	-1.8628221E+000
2	0	0	1	4.983303898526356E+002	-1.2351062E+000	-1.2377962E+000	-1.825902009598635E+002	-2.9796353E-001	37	6.2476587E-001	2.2600946E-001	-1.8625621E+000
2	0	0	1	4.986637898442132E+002	-1.2317725E+000	-1.2338797E+000	-1.785274379019838E+002	-3.5807139E-001	37	6.2340730E-001	2.2028138E-001	-1.8572869E+000
2	0	0	1	4.989971898357908E+002	-1.2284383E+000	-1.2291147E+000	-1.744934388731056E+002	-4.1682059E-001	37	6.2252587E-001	2.1447244E-001	-1.8516405E+000
2	0	0	1	4.993305898273684E+002	-1.2251042E+000	-1.2280283E+000	-1.703880445392535E+002	-4.7422144E-001	37	6.2088585E-001	2.0924135E-001	-1.8489141E+000
2	0	0	1	4.996639898189460E+002	-1.2217703E+000	-1.2212654E+000	-1.664035523905666E+002	-5.3026742E-001	37	6.1923981E-001	2.0322290E-001	-1.8405052E+000
2	0	0	1	4.999973898105236E+002	-1.2184364E+000	-1.2194382E+000	-1.624212245062076E+002	-5.8498448E-001	37	6.1769867E-001	1.9806264E-001	-1.8371369E+000
2	0	0	1	5.003306898021037E+002	-1.2151034E+000	-1.2136655E+000	-1.584951352407707E+002	-6.3836956E-001	37	6.1645007E-001	1.9236007E-001	-1.8301156E+000
2	0	0	1	5.006639897936839E+002	-1.2117703E+000	-1.2123564E+000	-1.547438956235530E+002	-6.9047570E-001	37	6.1493540E-001	1.8760476E-001	-1.8272918E+000
2	0	0	1	5.009973897852615E+002	-1.2084363E+000	-1.2093494E+000	-1.507883195801032E+002	-7.4131340E-001	37	6.1332756E-001	1.8235576E-001	-1.8226769E+000
2	0	0	1	5.013307897768391E+002	-1.2051021E+000	-1.2051419E+000	-1.469042356357554E+002	-7.9083484E-001	37	6.1216652E-001	1.7704044E-001	-1.8173084E+000
2	0	0	1	5.016641897684167E+002	-1.2017684E+000	-1.2028919E+000	-1.429907180644445E+002	-8.3906108E-001	37	6.1051142E-001	1.7200239E-001	-1.8134034E+000
2	0	0	1	5.019975897599943E+002	-1.1984344E+000	-1.1991332E+000	-1.389814276265629E+002	-8.8596839E-001	37	6.0899192E-001	1.6665724E-001	-1.8081250E+000
2	0	0	1	5.023309897515719E+002	-1.1951003E+000	-1.1957656E+000	-1.353189558792949E+002	-9.3159580E-001	37	6.0769379E-001	1.6180976E-001	-1.8034594E+000
2	0	0	1	5.026642897431520E+002	-1.1917675E+000	-1.1917313E+000	-1.314871311006891E+002	-9.7595984E-001	37	6.0581589E-001	1.5669733E-001	-1.7975472E+000
2	0	0	1	5.029975897347322E+002	-1.1884342E+000	-1.1909776E+000	-1.276675745558769E+002	-1.0190450E+000	37	6.0440487E-001	1.5204921E-001	-1.7953825E+000
2	0	0	1	5.033309897263098E+002	-1.1851004E+000	-1.1863303E+000	-1.240711703577194E+002	-1.0609061E+000	37	6.0280335E-001	1.4718939E-001	-1.7891337E+000
2	0	0	1	5.036643897178874E+002	-1.1817662E+000	-1.1834391E+000	-1.202098288447980E+002	-1.1015238E+000	37	6.0148925E-001	1.4226101E-001	-1.7849283E+000
2	0	0	1	5.039977897094650E+002	-1.1784325E+000	-1.1794862E+000	-1.165376095431006E+002	-1.1408881E+000	37	6.0028881E-001	1.3745449E-001	-1.7797749E+000
2	0	0	1	5.043311897010426E+002	-1.1750981E+000	-1.1758455E+000	-1.128245614280391E+002	-1.1790168E+000	37	5.9789741E-001	1.3266425E-001	-1.7737429E+000
2	0	0	1	5.046645896926202E+002	-1.1717643E+000	-1.1722634E+000	-1.093492696126305E+002	-1.2159553E+000	37	5.9657359E-001	1.2818615E-001	-1.7688370E+000
2	0	0	1	5.049978896842003E+002	-1.1684315E+000	-1.1687368E+000	-1.056586304585959E+002	-1.2516804E+000	37	5.9483254E-001	1.2348713E-001	-1.7635694E+000
2	0	0	1	5.053311896757805E+002	-1.1650982E+000	-1.1657367E+000	-1.021922075806266E+002	-1.2862120E+000	37	5.9324282E-001	1.1912920E-001	-1.7589796E+000
2	0	0	1	5.056645896673581E+002	-1.1617646E+000	-1.1637882E+000	-9.866885140565569E+001	-1.3195963E+000	37	5.9184968E-001	1.1482964E-001	-1.7556379E+000
2	0	0	1	5.059979896589357E+002	-1.1584301E+000	-1.1580781E+000	-9.502303372746002E+001	-1.3517792E+000	37	5.9003276E-001	1.1004409E-001	-1.7481108E+000
2	0	0	1	5.063313896505133E+002	-1.1550965E+000	-1.1537391E+000	-9.160083813453926E+001	-1.3827862E+000	37	5.8856851E-001	1.0568347E-001	-1.7423077E+000
2	0	0	1	5.066647896420909E+002	-1.1517624E+000	-1.1530043E+000	-8.805815895623304E+001	-1.4126326E+000	37	5.8674133E-001	1.0153144E-001	-1.7397456E+000
2	0	0	1	5.069981896336685E+002	-1.1484283E+000	-1.1482816E+000	-8.466289576244424E+001	-1.4413189E+000	37	5.8508140E-001	9.7216845E-002	-1.7333629E+000
2	0	0	1	5.073314896252487E+002	-1.1450953E+000	-1.1446686E+000	-8.136885349817703E+001	-1.4688839E+000	37	5.8333087E-001	9.3140371E-002	-1.7279994E+000
2	0	0	1	5.076647896168288E+002	-1.1417623E+000	-1.1415098E+000	-7.807981320506383E+001	-1.4953544E+000	37	5.8157963E-001	8.9128867E-002	-1.7230895E+000
2	0	0	1	5.079981896084064E+002	-1.1384284E+000	-1.1390827E+000	-7.473261300838078E+001	-1.5207267E+000	37	5.8015591E-001	8.5126624E-002	-1.7192385E+000
2	0	0	1	5.083315895999840E+002	-1.1350944E+000	-1.1364613E+000	-7.152366772586265E+001	-1.5450095E+000	37	5.7807815E-001	8.1283875E-002	-1.7145394E+000
2	0	0	1	5.086649895915616E+002	-1.1317604E+000	-1.1306653E+000	-6.822478604845901E+001	-1.5682058E+000	37	5.7611179E-001	7.7139400E-002	-1.7067771E+000
2	0	0	1	5.089983895831392E+002	-1.1284263E+000	-1.1284016E+000	-6.513696896852059E+001	-1.5903380E+000	37	5.7463157E-001	7.3500663E-002	-1.7030332E+000
2	0	0	1	5.093317895747168E+002	-1.1250923E+000	-1.1258906E+000	-6.212792335302197E+001	-1.6114584E+000	37	5.7247239E-001	6.9949247E-002	-1.6983631E+000
2	0	0	1	5.096650895662970E+002	-1.1217593E+000	-1.1225940E+000	-5.900281683151547E+001	-1.6315484E+000	37	5.7128239E-001	6.6236205E-002	-1.6938764E+000
2	0	0	1	5.099983895578771E+002	-1.1184263E+000	-1.1206354E+000	-5.598062708806947E+001	-1.6506174E+000	37	5.6908375E-001	6.2733874E-002	-1.6897192E+000
2	0	0	1	5.103317895494547E+002	-1.1150925E+000	-1.1155101E+000	-5.311235436944240E+001	-1.6687063E+000	37	5.6724250E-001	5.9247367E-002	-1.6827526E+000
2	0	0	1	5.106651895410323E+002	-1.1117581E+000	-1.1124098E+000	-5.014805339030443E+001	-1.6858213E+000	37	5.6509912E-001	5.5785187E-002	-1.6775090E+000
2	0	0	1	5.109985895326099E+002	-1.1084244E+000	-1.1068633E+000	-4.728453206720883E+001	-1.7019683E+000	37	5.6332731E-001	5.2337512E-002	-1.6701906E+000
2	0	0	1	5.113486895237656E+002	-1.1049235E+000	-1.1074908E+000	-4.454187055359935E+001	-1.7179136E+000	37	5.6114078E-001	4.9329709E-002	-1.6686316E+000
2	0	0	1	5.116985895149264E+002	-1.1014242E+000	-1.1041961E+000	-4.161523542032489E+001	-1.7328986E+000	38	5.5873305E-001	4.5951381E-002	-1.6629291E+000
2	0	0	1	5.120319895065040E+002	-1.0980905E+000	-1.0960817E+000	-3.898541198172580E+001	-1.7462423E+000	38	5.5704916E-001	4.2731199E-002	-1.6531309E+000
2	0	0	1	5.123653894980816E+002	-1.0947561E+000	-1.0938946E+000	-3.641143297854558E+001	-1.7587210E+000	38	5.5508268E-001	3.9830271E-002	-1.6489773E+000
2	0	0	1	5.126987894896592E+002	-1.0914223E+000	-1.0900276E+000	-3.384579892293371E+001	-1.7703471E+000	38	5.5285615E-001	3.6892854E-002	-1.6428838E+000
2	0	0	1	5.130321894812369E+002	-1.0880884E+000	-1.0893452E+000	-3.133190629130559E+001	-1.7811272E+000	38	5.5114102E-001	3.4131262E-002	-1.6404862E+000
2	0	0	1	5.133655894728145E+002	-1.0847543E+000	-1.0839365E+000	-2.890067112003579E+001	-1.7910850E+000	38	5.4860300E-001	3.1326491E-002	-1.6325395E+000
2	0	0	1	5.136988894643946E+002	-1.0814214E+000	-1.0842619E+000	-2.657526321621390E+001	-1.8002472E+000	38	5.4666942E-001	2.8814545E-002	-1.6309314E+000
2	0	0	1	5.140321894559747E+002	-1.0780882E+000	-1.0801400E+000	-2.423625777170162E+001	-1.8086344E+000	38	5.4414475E-001	2.6178552E-002	-1.6242847E+000
2	0	0	1	5.143655894475523E+002	-1.0747544E+000	-1.0757048E+000	-2.197452210548326E+001	-1.8162576E+000	38	5.4182768E-001	2.3638099E-002	-1.6175325E+000
2	0	0	1	5.146989894391299E+002	-1.0714202E+000	-1.0728875E+000	-1.978920770378676E+001	-1.8231413E+000	38	5.3905320E-001	2.1231594E-002	-1.6119407E+000
2	0	0	1	5.150323894307076E+002	-1.0680864E+000	-1.0721577E+000	-1.761948230258744E+001	-1.8293004E+000	38	5.3683740E-001	1.8890865E-002	-1.6089952E+000
2	0	0	1	5.153657894222852E+002	-1.0647523E+000	-1.0642282E+000	-1.551327232643346E+001	-1.8347473E+000	38	5.3361034E-001	1.6509661E-002	-1.5978385E+000
2	0	0	1	5.156991894138628E+002	-1.0614183E+000	-1.0597829E+000	-1.343489672603744E+001	-1.8394988E+000	38	5.3083611E-001	1.4238073E-002	-1.5906190E+000
2	0	0	1	5.160324894054429E+002	-1.0580853E+000	-1.0591763E+000	-1.137612048840523E+001	-1.8435583E+000	38	5.2755207E-001	1.2049317E-002	-1.5867283E+000
2	0	0	1	5.163657893970230E+002	-1.0547522E+000	-1.0577646E+000	-9.371278975308101E+000	-1.8469433E+000	38	5.2381444E-001	9.9126073E-003	-1.5815791E+000
2	0	0	1	5.166991893886006E+002	-1.0514185E+000	-1.0516431E+000	-7.451326642093221E+000	-1.8496770E+000	38	5.2027357E-001	7.8361360E-003	-1.5719167E+000
2	0	0	1	5.170325893801783E+002	-1.0480844E+000	-1.0483853E+000	-5.563349828933504E+000	-1.8517767E+000	38	5.1526499E-001	5.8325338E-003	-1.5636503E+000
2	0	0	1	5.173659893717559E+002	-1.0447503E+000	-1.0475258E+000	-3.708339943576210E+000	-1.8532622E+000	38	5.1027596E-001	3.8845816E-003	-1.5578017E+000
2	0	0	1	5.176993893633335E+002	-1.0414162E+000	-1.0402671E+000	-1.740496738145280E+000	-1.8541114E+000	39	5.0246567E-001	1.8105815E-003	-1.5427327E+000
2	0	0	1	5.180327893549111E+002	-1.0380822E+000	-1.0371132E+000	3.292858269513357E-001	-1.8542798E+000	39	4.9297035E-001	-3.4150667E-004	-1.5300835E+000
2	1	0	1	5.183660893464912E+002	-1.0347495E+000	-1.0357702E+000	2.521516066199439E+000	-1.8537375E+000	39	4.7828698E-001	-2.6117112E-003	-1.5140572E+000
2	1	0	1	5.186993893380713E+002	-1.0314162E+000	-1.0310870E+000	4.878090577617641E+000	-1.8524374E+000	39	4.5881835E-001	-5.0297361E-003	-1.4899054E+000
2	1	0	1	5.190327893296489E+002	-1.0280825E+000	-1.0279258E+000	7.465848201156149E+000	-1.8503119E+000	39	4.3422949E-001	-7.6743383E-003	-1.4621553E+000
2	1	0	1	5.193661893212266E+002	-1.0247481E+000	-1.0245405E+000	1.022415169462322E+001	-1.8472816E+000	39	4.0389866E-001	-1.0475058E-002	-1.4284391E+000
2	1	0	1	5.196995893128042E+002	-1.0214143E+000	-1.0235611E+000	1.303989322278581E+001	-1.8433233E+000	38	3.6977854E-001	-1.3347127E-002	-1.3933396E+000
2	1	0	1	5.200329893043818E+002	-1.0180805E+000	-1.0189066E+000	1.571488872958803E+001	-1.8384606E+000	38	3.3952701E-001	-1.6012004E-002	-1.3584336E+000
2	1	0	1	5.203663892959594E+002	-1.0147462E+000	-1.0141013E+000	1.787006831240814E+001	-1.8327967E+000	38	3.1432655E-001	-1.8122058E-002	-1.3284278E+000
2	1	0	1	5.206996892875395E+002	-1.0114136E+000	-1.0132303E+000	1.893263581444762E+001	-1.8266052E+000	38	2.9650280E-001	-1.9183122E-002	-1.3097332E+000
2	1	0	1	5.210329892791196E+002	-1.0080801E+000	-1.0099262E+000	1.851351760652864E+001	-1.8203185E+000	38	2.8610250E-001	-1.8697286E-002	-1.2960287E+000
2	1	0	1	5.213663892706973E+002	-1.0047466E+000	-1.0045992E+000	1.745139575825601E+001	-1.8142899E+000	38	2.7899823E-001	-1.7531658E-002	-1.2835975E+000
2	1	0	1	5.216997892622749E+002	-1.0014123E+000	-1.0010319E+000	1.652858875937545E+001	-1.8085976E+000	38	2.7204517E-001	-1.6545644E-002	-1.2730770E+000
2	1	0	1	5.220331892538525E+002	-9.9807829E-001	-1.0006223E+000	1.594437918805795E+001	-1.8031530E+000	38	2.6481456E-001	-1.5954301E-002	-1.2654369E+000
2	1	0	1	5.223665892454301E+002	-9.9474418E-001	-9.9661827E-001	1.564232711550851E+001	-1.7978545E+000	38	2.5680986E-001	-1.5589429E-002	-1.2534281E+000
2	1	0	1	5.226999892370077E+002	-9.9141032E-001	-9.9337435E-001	1.557198460996852E+001	-1.7926160E+000	38	2.4702135E-001	-1.5468810E-002	-1.2403957E+000
2	1	0	1	5.230332892285878E+002	-9.8807746E-001	-9.8815042E-001	1.561524157689598E+001	-1.7873822E+000	38	2.2958861E-001	-1.5430207E-002	-1.2177390E+000
2	1	0	1	5.233666892201654E+002	-9.8474330E-001	-9.8606771E-001	1.557123964567597E+001	-1.7821475E+000	38	1.7545824E-001	-1.5354296E-002	-1.1615260E+000
2	1	0	1	5.236999892117456E+002	-9.8141044E-001	-9.8129421E-001	1.555196231611029E+001	-1.7769277E+000	38	3.8300104E-002	-1.5261050E-002	-1.0195943E+000
2	1	0	1	5.240333892033232E+002	-9.7807622E-001	-9.7686678E-001	1.555524819240362E+001	-1.7717067E+000	38	-2.7992296E-001	-1.5195405E-002	-6.9694382E-001
2	1	0	1	5.243667891949008E+002	-9.7474235E-001	-9.7279954E-001	1.576678429124715E+001	-1.7664545E+000	38	-7.5388426E-001	-1.5337921E-002	-2.1891528E-001
2	1	0	1	5.247001891864784E+002	-9.7140849E-001	-9.7085911E-001	1.600582461219793E+001	-1.7611202E+000	38	-8.4278286E-001	-1.5539400E-002	-1.2807626E-001
2	1	0	1	5.250335891780560E+002	-9.6807426E-001	-9.6776462E-001	1.627858551013682E+001	-1.7557025E+000	38	-8.8296926E-001	-1.5753839E-002	-8.4795356E-002
2	1	0	1	5.253668891696361E+002	-9.6474147E-001	-9.6633714E-001	1.674234501651318E+001	-1.7501606E+000	38	-9.1581130E-001	-1.6178750E-002	-5.0525844E-002
2	1	0	1	5.257002891612137E+002	-9.6140724E-001	-9.6130478E-001	1.730459097979485E+001	-1.7444448E+000	38	-9.4565421E-001	-1.6634986E-002	-1.5650570E-002
2	1	0	1	5.260335891527939E+002	-9.5807439E-001	-9.5917511E-001	1.798005984120124E+001	-1.7385247E+000	38	-9.7215939E-001	-1.7246027E-002	1.2984276E-002
2	1	0	1	5.263669891443715E+002	-9.5474023E-001	-9.5623261E-001	1.878817110503707E+001	-1.7323548E+000	38	-9.9537301E-001	-1.7965863E-002	3.9140403E-002
2	1	0	1	5.266836891363710E+002	-9.5157337E-001	-9.5111603E-001	1.960942738749611E+001	-1.7262415E+000	38	-1.0152673E+000	-1.8650841E-002	6.4151227E-002
2	1	0	0	5.268243891328166E+002	-9.4990587E-001	-9.5026571E-001	2.023771110740867E+001	-1.7234607E+000	38	-1.0254836E+000	-1.9231202E-002	7.5217903E-002
2	0	0	0	6.209537867549079E+002	-1.2529407E+000	-1.2536314E+000	-2.132621614044788E+002	-7.5902934E-003	37	6.3260114E-001	2.6735213E-001	-1.8862325E+000
2	0	0	1	6.211371867502749E+002	-1.2511076E+000	-1.2519963E+000	-2.078998472236499E+002	-4.5792054E-002	37	6.3097447E-001	2.6028985E-001	-1.8829708E+000
2	0	0	1	6.214705867418525E+002	-1.2477731E+000	-1.2481816E+000	-2.032868180539369E+002	-1.1425744E-001	37	6.2959766E-001	2.5373885E-001	-1.8777792E+000
2	0	0	1	6.218039867334301E+002	-1.2444394E+000	-1.2450609E+000	-1.990458312961450E+002	-1.8125413E-001	37	6.2860811E-001	2.4782419E-001	-1.8736690E+000
2	0	0	1	6.221372867250102E+002	-1.2411064E+000	-1.2422038E+000	-1.948458801451065E+002	-2.4682526E-001	37	6.2705737E-001	2.4203829E-001	-1.8692613E+000
2	0	0	1	6.224705867165903E+002	-1.2377733E+000	-1.2380065E+000	-1.904747509225531E+002	-3.1096846E-001	37	6.2554795E-001	2.3580897E-001	-1.8635545E+000
2	0	0	1	6.228039867081679E+002	-1.2344393E+000	-1.2346040E+000	-1.863688634204225E+002	-3.7371400E-001	37	6.2442338E-001	2.3009175E-001	-1.8590274E+000
2	0	0	1	6.231373866997455E+002	-1.2311051E+000	-1.2309003E+000	-1.821693291025133E+002	-4.3508187E-001	37	6.2289464E-001	2.2423229E-001	-1.8537949E+000
2	0	0	1	6.234707866913232E+002	-1.2277713E+000	-1.2286754E+000	-1.780776624827563E+002	-4.9505901E-001	37	6.2145364E-001	2.1879964E-001	-1.8501290E+000
2	0	0	1	6.238041866829008E+002	-1.2244372E+000	-1.2244292E+000	-1.741531280227996E+002	-5.5371088E-001	37	6.1973709E-001	2.1323818E-001	-1.8441663E+000
2	0	0	1	6.241375866744784E+002	-1.2211034E+000	-1.2201550E+000	-1.700075490822542E+002	-6.1100900E-001	37	6.1819571E-001	2.0743556E-001	-1.8383508E+000
2	0	0	1	6.244708866660585E+002	-1.2177705E+000	-1.2175553E+000	-1.658197902226404E+002	-6.6689491E-001	37	6.1652392E-001	2.0189476E-001	-1.8340793E+000
2	0	0	1	6.248041866576386E+002	-1.2144372E+000	-1.2156341E+000	-1.616542627306685E+002	-7.2138923E-001	37	6.1520094E-001	1.9651243E-001	-1.8308351E+000
2	0	0	1	6.251375866492162E+002	-1.2111033E+000	-1.2132531E+000	-1.575758812311476E+002	-7.7453268E-001	37	6.1394012E-001	1.9117944E-001	-1.8271933E+000
2	0	0	1	6.254709866407939E+002	-1.2077690E+000	-1.2090123E+000	-1.538407408147455E+002	-8.2636964E-001	37	6.1217093E-001	1.8599534E-001	-1.8211832E+000
2	0	0	1	6.258043866323715E+002	-1.2044355E+000	-1.2042491E+000	-1.497353220386439E+002	-8.7689912E-001	37	6.1091971E-001	1.8031864E-001	-1.8151689E+000
2	0	0	1	6.261377866239491E+002	-1.2011011E+000	-1.2026296E+000	-1.458170019426621E+002	-9.2609042E-001	37	6.0923791E-001	1.7536384E-001	-1.8118675E+000
2	0	0	1	6.264711866155267E+002	-1.1977673E+000	-1.1953238E+000	-1.419309728248186E+002	-9.7397846E-001	37	6.0761052E-001	1.6965348E-001	-1.8029344E+000
2	0	0	1	6.268044866071068E+002	-1.1944344E+000	-1.1919601E+000	-1.381326036282853E+002	-1.0205716E+000	37	6.0626340E-001	1.6464855E-001	-1.7982235E+000
2	0	0	1	6.271377865986869E+002	-1.1911012E+000	-1.1906379E+000	-1.341799565439283E+002	-1.0658762E+000	37	6.0484326E-001	1.5975975E-001	-1.7954812E+000
2	0	0	1	6.274711865902646E+002	-1.1877675E+000	-1.1886688E+000	-1.302677718775321E+002	-1.1098851E+000	37	6.0345942E-001	1.5484524E-001	-1.7921283E+000
2	0	0	1	6.278045865818422E+002	-1.1844332E+000	-1.1837145E+000	-1.264656477462149E+002	-1.1526031E+000	37	6.0198337E-001	1.4969923E-001	-1.7856979E+000
2	0	0	1	6.281379865734198E+002	-1.1810994E+000	-1.1800653E+000	-1.227481579769847E+002	-1.1940720E+000	37	6.0011446E-001	1.4485084E-001	-1.7801797E+000
2	0	0	1	6.284713865649974E+002	-1.1777650E+000	-1.1829070E+000	-1.188860569327328E+002	-1.2342708E+000	37	5.9890103E-001	1.4063115E-001	-1.7818080E+000
2	0	0	1	6.288047865565750E+002	-1.1744313E+000	-1.1719252E+000	-1.152769800431247E+002	-1.2732259E+000	37	5.9671891E-001	1.3509600E-001	-1.7686441E+000
2	0	0	1	6.291380865481551E+002	-1.1710984E+000	-1.1730248E+000	-1.114872411849801E+002	-1.3109307E+000	37	5.9581566E-001	1.3077730E-001	-1.7688404E+000
2	0	0	1	6.294713865397352E+002	-1.1677651E+000	-1.1689962E+000	-1.078408294206714E+002	-1.3474009E+000	37	5.9382206E-001	1.2606552E-001	-1.7628183E+000
2	0	0	1	6.298047865313129E+002	-1.1644313E+000	-1.1639769E+000	-1.041501091303096E+002	-1.3826547E+000	37	5.9226543E-001	1.2122832E-001	-1.7562423E+000
2	0	0	1	6.301381865228905E+002	-1.1610970E+000	-1.1640846E+000	-1.004805619553144E+002	-1.4166783E+000	37	5.9125048E-001	1.1696787E-001	-1.7553351E+000
2	0	0	1	6.304715865144681E+002	-1.1577634E+000	-1.1611836E+000	-9.687111500680396E+001	-1.4494884E+000	37	5.8908135E-001	1.1248515E-001	-1.7502649E+000
2	0	0	1	6.308049865060457E+002	-1.1544293E+000	-1.1554015E+000	-9.329421347318430E+001	-1.4811053E+000	37	5.8750063E-001	1.0779227E-001	-1.7429020E+000
2	0	0	1	6.311383864976233E+002	-1.1510954E+000	-1.1544571E+000	-8.975099142319678E+001	-1.5115334E+000	37	5.8541107E-001	1.0361367E-001	-1.7398682E+000
2	0	0	1	6.314716864892034E+002	-1.1477623E+000	-1.1449068E+000	-8.623428193102097E+001	-1.5407716E+000	37	5.8372945E-001	9.8730214E-002	-1.7286363E+000
2	0	0	1	6.318049864807836E+002	-1.1444292E+000	-1.1421173E+000	-8.287513954190695E+001	-1.5688615E+000	37	5.8238280E-001	9.4653130E-002	-1.7245001E+000
2	0	0	1	6.321383864723612E+002	-1.1410955E+000	-1.1434915E+000	-7.946038637996776E+001	-1.5958358E+000	37	5.8051622E-001	9.0862274E-002	-1.7240077E+000
2	0	0	1	6.324717864639388E+002	-1.1377612E+000	-1.1389861E+000	-7.609527698308443E+001	-1.6216730E+000	37	5.7860160E-001	8.6671464E-002	-1.7175877E+000
2	0	0	1	6.328051864555164E+002	-1.1344274E+000	-1.1352245E+000	-7.270941423961972E+001	-1.6463873E+000	37	5.7680583E-001	8.2541503E-002	-1.7120303E+000
2	0	0	1	6.331385864470940E+002	-1.1310930E+000	-1.1296864E+000	-6.939117264274898E+001	-1.6699830E+000	37	5.7494950E-001	7.8390263E-002	-1.7046359E+000
2	0	0	1	6.334719864386716E+002	-1.1277593E+000	-1.1286819E+000	-6.619227372524824E+001	-1.6924949E+000	37	5.7344252E-001	7.4710019E-002	-1.7021244E+000
2	0	0	1	6.338052864302517E+002	-1.1244262E+000	-1.1250678E+000	-6.309452856226235E+001	-1.7139454E+000	37	5.7163805E-001	7.0985623E-002	-1.6967058E+000
2	0	0	1	6.341385864218319E+002	-1.1210933E+000	-1.1220673E+000	-5.993538223750943E+001	-1.7343531E+000	37	5.6945348E-001	6.7251533E-002	-1.6915208E+000
2	0	0	1	6.344719864134095E+002	-1.1177595E+000	-1.1184176E+000	-5.679156670420650E+001	-1.7537199E+000	37	5.6800961E-001	6.3516691E-002	-1.6864272E+000
2	0	0	1	6.348053864049871E+002	-1.1144251E+000	-1.1141012E+000	-5.378229732623686E+001	-1.7720571E+000	37	5.6579840E-001	5.9918921E-002	-1.6798996E+000
2	0	0	1	6.351387863965647E+002	-1.1110914E+000	-1.1138835E+000	-5.083101567824770E+001	-1.7893991E+000	37	5.6418484E-001	5.6619830E-002	-1.6780684E+000
2	0	0	1	6.354721863881423E+002	-1.1077573E+000	-1.1072100E+000	-4.786980477930842E+001	-1.8057559E+000	37	5.6200731E-001	5.3001929E-002	-1.6692173E+000
2	0	0	1	6.358221863793005E+002	-1.1042571E+000	-1.1048633E+000	-4.485033143242015E+001	-1.8218668E+000	37	5.5999678E-001	4.9553484E-002	-1.6648600E+000
2	0	0	1	6.361721863704588E+002	-1.1007575E+000	-1.1015161E+000	-4.198578401843201E+001	-1.8369981E+000	38	5.5772406E-001	4.6248019E-002	-1.6592402E+000
2	0	0	1	6.365055863620364E+002	-1.0974232E+000	-1.0976162E+000	-3.926556899091293E+001	-1.8504522E+000	38	5.5586404E-001	4.3098524E-002	-1.6534803E+000
2	0	0	1	6.368389863536140E+002	-1.0940894E+000	-1.0945212E+000	-3.665169865611148E+001	-1.8630130E+000	38	5.5350947E-001	4.0116061E-002	-1.6480306E+000
2	0	0	1	6.371723863451916E+002	-1.0907552E+000	-1.0914699E+000	-3.401816486460376E+001	-1.8747014E+000	38	5.5176538E-001	3.7129801E-002	-1.6432352E+000
2	0	0	1	6.375057863367692E+002	-1.0874214E+000	-1.0893747E+000	-3.147725236963822E+001	-1.8855270E+000	38	5.4929650E-001	3.4290522E-002	-1.6386712E+000
2	0	0	1	6.378390863283494E+002	-1.0840882E+000	-1.0846269E+000	-2.897074962055763E+001	-1.8955072E+000	38	5.4723525E-001	3.1422455E-002	-1.6318622E+000
2	0	0	1	6.381723863199295E+002	-1.0807552E+000	-1.0786704E+000	-2.649708131517309E+001	-1.9046556E+000	38	5.4500967E-001	2.8581617E-002	-1.6236801E+000
2	0	0	1	6.385057863115071E+002	-1.0774213E+000	-1.0773644E+000	-2.410811244921494E+001	-1.9129968E+000	38	5.4223621E-001	2.5973223E-002	-1.6196007E+000
2	0	0	1	6.388391863030847E+002	-1.0740871E+000	-1.0734894E+000	-2.181487598510989E+001	-1.9205569E+000	38	5.3995448E-001	2.3418039E-002	-1.6134439E+000
2	0	0	1	6.391725862946623E+002	-1.0707533E+000	-1.0715646E+000	-1.952305381874459E+001	-1.9273555E+000	38	5.3780150E-001	2.0920213E-002	-1.6093661E+000
2	0	0	1	6.395059862862399E+002	-1.0674192E+000	-1.0695596E+000	-1.726271433131042E+001	-1.9333949E+000	38	5.3468740E-001	1.8463502E-002	-1.6042470E+000
2	0	0	1	6.398393862778175E+002	-1.0640854E+000	-1.0643841E+000	-1.504576835839345E+001	-1.9386885E+000	38	5.3213966E-001	1.6014477E-002	-1.5965238E+000
2	0	0	1	6.401726862693977E+002	-1.0607523E+000	-1.0632987E+000	-1.292248844883528E+001	-1.9432567E+000	38	5.2885002E-001	1.3740465E-002	-1.5921488E+000
2	0	0	1	6.405059862609778E+002	-1.0574191E+000	-1.0564564E+000	-1.089785443653639E+001	-1.9471335E+000	38	5.2537417E-001	1.1513108E-002	-1.5818306E+000
2	0	0	1	6.408393862525554E+002	-1.0540856E+000	-1.0539954E+000	-8.930438032513791E+000	-1.9503465E+000	38	5.2241218E-001	9.4126407E-003	-1.5764076E+000
2	0	0	1	6.411727862441330E+002	-1.0507510E+000	-1.0503913E+000	-7.012223612417159E+000	-1.9529119E+000	38	5.1794022E-001	7.3655788E-003	-1.5683315E+000
2	0	0	1	6.415061862357106E+002	-1.0474173E+000	-1.0468302E+000	-5.094268159985020E+000	-1.9548365E+000	38	5.1313090E-001	5.3328336E-003	-1.5599611E+000
2	0	0	1	6.418395862272882E+002	-1.0440830E+000	-1.0443149E+000	-3.300566380291801E+000	-1.9561355E+000	38	5.0702584E-001	3.4468304E-003	-1.5513407E+000
2	0	0	1	6.421729862188658E+002	-1.0407493E+000	-1.0418117E+000	-1.224523217570674E+000	-1.9567904E+000	39	4.9873269E-001	1.2757226E-003	-1.5405444E+000
2	0	0	1	6.425062862104460E+002	-1.0374165E+000	-1.0375700E+000	8.578142671736702E-001	-1.9567584E+000	39	4.8803538E-001	-8.9004234E-004	-1.5256054E+000
2	1	0	1	6.428395862020261E+002	-1.0340831E+000	-1.0340301E+000	3.080863146551529E+000	-1.9560076E+000	39	4.7298580E-001	-3.1857053E-003	-1.5070159E+000
2	1	0	1	6.431729861936037E+002	-1.0307494E+000	-1.0315385E+000	5.534801501094814E+000	-1.9544759E+000	39	4.5154831E-001	-5.7093608E-003	-1.4830868E+000
2	1	0	1	6.435063861851813E+002	-1.0274152E+000	-1.0284116E+000	8.193203644132751E+000	-1.9520900E+000	39	4.2569607E-001	-8.4259855E-003	-1.4541078E+000
2	1	0	1	6.438564861763371E+002	-1.0239143E+000	-1.0243701E+000	1.115569665776191E+001	-1.9485650E+000	39	3.9243078E-001	-1.1427562E-002	-1.4168009E+000
2	1	0	1	6.442064861674953E+002	-1.0204142E+000	-1.0191357E+000	1.411355009739802E+001	-1.9440500E+000	38	3.5718882E-001	-1.4383623E-002	-1.3763245E+000
2	1	0	1	6.445397861590754E+002	-1.0170813E+000	-1.0172031E+000	1.661030050621926E+001	-1.9388293E+000	38	3.2892504E-001	-1.6896049E-002	-1.3461281E+000
2	1	0	1	6.448731861506531E+002	-1.0137472E+000	-1.0155486E+000	1.835711417789946E+001	-1.9329058E+000	38	3.0668271E-001	-1.8642541E-002	-1.3222313E+000
2	1	0	1	6.452065861422307E+002	-1.0104132E+000	-1.0105414E+000	1.871757184247718E+001	-1.9266416E+000	38	2.9257968E-001	-1.8914882E-002	-1.3031211E+000
2	1	0	1	6.455399861338083E+002	-1.0070794E+000	-1.0058877E+000	1.781303270599591E+001	-1.9204818E+000	38	2.8467828E-001	-1.7917911E-002	-1.2905660E+000
2	1	0	1	6.458733861253859E+002	-1.0037453E+000	-1.0037467E+000	1.667794762714374E+001	-1.9146706E+000	38	2.7831772E-001	-1.6740436E-002	-1.2820644E+000
2	1	0	1	6.462067861169635E+002	-1.0004113E+000	-1.0009362E+000	1.587083377489785E+001	-1.9091816E+000	38	2.7196771E-001	-1.5885692E-002	-1.2729039E+000
2	1	0	1	6.465400861085436E+002	-9.9707830E-001	-9.9619585E-001	1.539593298287218E+001	-1.9039047E+000	38	2.6568606E-001	-1.5337365E-002	-1.2618819E+000
2	1	0	1	6.468733861001238E+002	-9.9374521E-001	-9.9356806E-001	1.516897641140514E+001	-1.8987411E+000	38	2.5869918E-001	-1.5071411E-002	-1.2522672E+000
2	1	0	1	6.472067860917014E+002	-9.9041140E-001	-9.9098712E-001	1.513749815305417E+001	-1.8936182E+000	38	2.4992682E-001	-1.5001066E-002	-1.2409140E+000
2	1	0	1	6.475401860832790E+002	-9.8707706E-001	-9.8603088E-001	1.522648315095347E+001	-1.8884860E+000	38	2.3650192E-001	-1.5013782E-002	-1.2225327E+000
2	1	0	1	6.478735860748566E+002	-9.8374343E-001	-9.8177141E-001	1.521805219528727E+001	-1.8833404E+000	38	1.9710700E-001	-1.4940648E-002	-1.1788784E+000
2	1	0	1	6.482069860664342E+002	-9.8040915E-001	-9.8315364E-001	1.521578141431417E+001	-1.8781991E+000	38	8.1902429E-002	-1.4959451E-002	-1.0650561E+000
2	1	0	1	6.485403860580118E+002	-9.7707516E-001	-9.7937709E-001	1.526493492146932E+001	-1.8730518E+000	38	-1.6662171E-001	-1.4950127E-002	-8.1275535E-001
2	1	0	1	6.488736860495919E+002	-9.7374225E-001	-9.7394305E-001	1.548297720439490E+001	-1.8678644E+000	38	-7.0238096E-001	-1.5079538E-002	-2.7156210E-001
2	1	0	1	6.492069860411721E+002	-9.7040927E-001	-9.7068417E-001	1.587283970737471E+001	-1.8625697E+000	38	-8.3522737E-001	-1.5407514E-002	-1.3545680E-001
2	1	0	1	6.495403860327497E+002	-9.6707541E-001	-9.6680343E-001	1.623781341007486E+001	-1.8571514E+000	38	-8.7953633E-001	-1.5698774E-002	-8.7267101E-002
2	1	0	1	6.498737860243273E+002	-9.6374130E-001	-9.6149504E-001	1.679712680588394E+001	-1.8515792E+000	38	-9.1398358E-001	-1.6150353E-002	-4.7511458E-002
2	1	0	1	6.502071860159049E+002	-9.6040744E-001	-9.6079546E-001	1.745146306425937E+001	-1.8458030E+000	38	-9.4575202E-001	-1.6767286E-002	-1.5043437E-002
2	1	0	1	6.505405860074825E+002	-9.5707315E-001	-9.5581865E-001	1.824785234047880E+001	-1.8397857E+000	38	-9.7366011E-001	-1.7441638E-002	1.7841458E-002
2	1	0	1	6.508739859990601E+002	-9.5373929E-001	-9.5714486E-001	1.910193875169034E+001	-1.8334932E+000	38	-9.9804854E-001	-1.8283322E-002	4.0903687E-002
2	1	0	1	6.511405859923252E+002	-9.5107335E-001	-9.5069057E-001	1.982119497352437E+001	-1.8282722E+000	38	-1.0145689E+000	-1.8843822E-002	6.3878357E-002
2	1	0	0	6.512313859900314E+002	-9.4990587E-001	-9.5756567E-001	2.103051603162609E+001	-1.8264467E+000	38	-1.0207785E+000	-2.0138100E-002	6.3212872E-002