mode	ox/red	error	control changes	time/s	control/V	Ewe/V	<I>/mA	(Q-Qo)/C	I Range	<Ece>/V	P/W	Ewe-Ece/V	
2	0	0	1	1.235911993192713E+002	-1.2846000E+000	-1.2785590E+000	-1.968859825882257E+002	-7.0050792E-003	37	6.5626258E-001	2.5173035E-001	-1.9348216E+000
2	0	0	1	1.237745993146382E+002	-1.2827669E+000	-1.2843333E+000	-1.949170539124985E+002	-4.2767420E-002	37	6.5455574E-001	2.5033846E-001	-1.9388890E+000
2	0	0	1	1.241079993062158E+002	-1.2794328E+000	-1.2830025E+000	-1.908023426057525E+002	-1.0698389E-001	37	6.5280527E-001	2.4479988E-001	-1.9358077E+000
2	0	0	1	1.244413992977934E+002	-1.2760987E+000	-1.2773002E+000	-1.867293978975622E+002	-1.6982706E-001	37	6.5167487E-001	2.3850951E-001	-1.9289751E+000
2	0	0	1	1.247746992893735E+002	-1.2727659E+000	-1.2720244E+000	-1.826725975647810E+002	-2.3130542E-001	37	6.5041083E-001	2.3236400E-001	-1.9224353E+000
2	0	0	1	1.251079992809537E+002	-1.2694328E+000	-1.2729267E+000	-1.786196914459545E+002	-2.9142991E-001	37	6.4826888E-001	2.2736977E-001	-1.9211955E+000
2	0	0	1	1.254413992725313E+002	-1.2660990E+000	-1.2649477E+000	-1.747074757215114E+002	-3.5024068E-001	37	6.4689779E-001	2.2099581E-001	-1.9118454E+000
2	0	0	1	1.257747992641089E+002	-1.2627647E+000	-1.2635585E+000	-1.708660678508322E+002	-4.0775791E-001	37	6.4483988E-001	2.1589927E-001	-1.9083984E+000
2	0	0	1	1.261081992556865E+002	-1.2594310E+000	-1.2649124E+000	-1.671055773660740E+002	-4.6400926E-001	37	6.4371365E-001	2.1137391E-001	-1.9086261E+000
2	0	0	1	1.264415992472641E+002	-1.2560967E+000	-1.2542025E+000	-1.633232694129581E+002	-5.1900637E-001	37	6.4278263E-001	2.0484045E-001	-1.8969851E+000
2	0	0	1	1.267749992388417E+002	-1.2527628E+000	-1.2530116E+000	-1.595909584856701E+002	-5.7274860E-001	37	6.4072108E-001	1.9996932E-001	-1.8937327E+000
2	0	0	1	1.271082992304218E+002	-1.2494299E+000	-1.2547622E+000	-1.559803304825506E+002	-6.2525147E-001	37	6.3933975E-001	1.9571821E-001	-1.8941019E+000
2	0	0	1	1.274415992220020E+002	-1.2460967E+000	-1.2465405E+000	-1.523865354194666E+002	-6.7655391E-001	37	6.3741988E-001	1.8995599E-001	-1.8839605E+000
2	0	0	1	1.277749992135796E+002	-1.2427629E+000	-1.2425742E+000	-1.488502354402555E+002	-7.2668284E-001	37	6.3679117E-001	1.8495746E-001	-1.8793654E+000
2	0	0	1	1.281083992051572E+002	-1.2394285E+000	-1.2426068E+000	-1.452843297164752E+002	-7.7563173E-001	37	6.3410062E-001	1.8053129E-001	-1.8767073E+000
2	0	0	1	1.284417991967348E+002	-1.2360947E+000	-1.2350520E+000	-1.418665104724537E+002	-8.2342052E-001	37	6.3374746E-001	1.7521252E-001	-1.8687994E+000
2	0	0	1	1.287751991883124E+002	-1.2327607E+000	-1.2343802E+000	-1.385375501106560E+002	-8.7008268E-001	37	6.3172275E-001	1.7100802E-001	-1.8661029E+000
2	0	0	1	1.291085991798900E+002	-1.2294267E+000	-1.2287679E+000	-1.351543301816218E+002	-9.1562629E-001	37	6.3030386E-001	1.6607329E-001	-1.8590717E+000
2	0	0	1	1.294418991714701E+002	-1.2260938E+000	-1.2245629E+000	-1.317330813435451E+002	-9.6002597E-001	37	6.2880307E-001	1.6131544E-001	-1.8533659E+000
2	0	0	1	1.297751991630503E+002	-1.2227606E+000	-1.2242829E+000	-1.284664670808570E+002	-1.0033131E+000	37	6.2693655E-001	1.5727930E-001	-1.8512194E+000
2	0	0	1	1.301085991546279E+002	-1.2194269E+000	-1.2187861E+000	-1.252850211941657E+002	-1.0455351E+000	37	6.2563652E-001	1.5269564E-001	-1.8444226E+000
2	0	0	1	1.304419991462055E+002	-1.2160927E+000	-1.2171705E+000	-1.220471005337258E+002	-1.0866995E+000	37	6.2467396E-001	1.4855213E-001	-1.8418444E+000
2	0	0	1	1.307753991377831E+002	-1.2127588E+000	-1.2119855E+000	-1.190497768922160E+002	-1.1268226E+000	37	6.2262553E-001	1.4428660E-001	-1.8346109E+000
2	0	0	1	1.311087991293607E+002	-1.2094246E+000	-1.2078431E+000	-1.158961678312055E+002	-1.1659174E+000	37	6.2139165E-001	1.3998438E-001	-1.8292347E+000
2	0	0	1	1.314421991209383E+002	-1.2060907E+000	-1.2059425E+000	-1.128964105114644E+002	-1.2039896E+000	37	6.2022418E-001	1.3614658E-001	-1.8261666E+000
2	0	0	1	1.317754991125184E+002	-1.2027581E+000	-1.2021657E+000	-1.098407173193618E+002	-1.2410446E+000	37	6.1801022E-001	1.3204674E-001	-1.8201759E+000
2	0	0	1	1.321087991040986E+002	-1.1994245E+000	-1.1999017E+000	-1.068249450378548E+002	-1.2770854E+000	37	6.1693615E-001	1.2817943E-001	-1.8168378E+000
2	0	0	1	1.324421990956762E+002	-1.1960909E+000	-1.1998501E+000	-1.038396916631453E+002	-1.3121376E+000	37	6.1543798E-001	1.2459207E-001	-1.8152881E+000
2	0	0	1	1.327755990872538E+002	-1.1927565E+000	-1.1955110E+000	-1.008435515044301E+002	-1.3461915E+000	37	6.1371988E-001	1.2055957E-001	-1.8092308E+000
2	0	0	1	1.331089990788314E+002	-1.1894227E+000	-1.1907926E+000	-9.792911269150341E+001	-1.3792630E+000	37	6.1255538E-001	1.1661326E-001	-1.8033479E+000
2	0	0	1	1.334423990704090E+002	-1.1860887E+000	-1.1852906E+000	-9.521678832763843E+001	-1.4113952E+000	37	6.1082548E-001	1.1285956E-001	-1.7961161E+000
2	0	0	1	1.337757990619866E+002	-1.1827548E+000	-1.1825563E+000	-9.239829531241935E+001	-1.4426074E+000	37	6.0937393E-001	1.0926618E-001	-1.7919302E+000
2	0	0	1	1.341090990535668E+002	-1.1794219E+000	-1.1788338E+000	-8.964192772232423E+001	-1.4728787E+000	37	6.0829419E-001	1.0567294E-001	-1.7871280E+000
2	0	0	1	1.344423990451469E+002	-1.1760887E+000	-1.1771396E+000	-8.685040328754224E+001	-1.5022337E+000	37	6.0659504E-001	1.0223505E-001	-1.7837347E+000
2	0	0	1	1.347757990367245E+002	-1.1727549E+000	-1.1725571E+000	-8.415462634276207E+001	-1.5306796E+000	37	6.0471338E-001	9.8676108E-002	-1.7772706E+000
2	0	0	1	1.351091990283021E+002	-1.1694208E+000	-1.1727808E+000	-8.145683984073116E+001	-1.5582255E+000	37	6.0381109E-001	9.5531017E-002	-1.7765918E+000
2	0	0	1	1.354425990198797E+002	-1.1660868E+000	-1.1651837E+000	-7.878119825748865E+001	-1.5848800E+000	37	6.0192508E-001	9.1794565E-002	-1.7671087E+000
2	0	0	1	1.357759990114573E+002	-1.1627526E+000	-1.1656965E+000	-7.615858663819472E+001	-1.6106545E+000	37	6.0061640E-001	8.8777795E-002	-1.7663128E+000
2	0	0	1	1.361093990030349E+002	-1.1594187E+000	-1.1580966E+000	-7.352720372513977E+001	-1.6355523E+000	37	5.9902644E-001	8.5151598E-002	-1.7571230E+000
2	0	0	1	1.364426989946151E+002	-1.1560856E+000	-1.1543005E+000	-7.096388158942085E+001	-1.6595758E+000	37	5.9753722E-001	8.1913643E-002	-1.7518377E+000
2	0	0	1	1.367760989861927E+002	-1.1527518E+000	-1.1550276E+000	-6.845084500600137E+001	-1.6827562E+000	37	5.9561259E-001	7.9062618E-002	-1.7506402E+000
2	0	0	1	1.371093989777728E+002	-1.1494190E+000	-1.1480228E+000	-6.593271435680936E+001	-1.7050961E+000	37	5.9401596E-001	7.5692259E-002	-1.7420387E+000
2	0	0	1	1.374427989693504E+002	-1.1460848E+000	-1.1474681E+000	-6.353608246025539E+001	-1.7266223E+000	37	5.9324461E-001	7.2905630E-002	-1.7407126E+000
2	0	0	1	1.377761989609280E+002	-1.1427507E+000	-1.1439863E+000	-6.109473312170280E+001	-1.7473385E+000	37	5.9140015E-001	6.9891542E-002	-1.7353865E+000
2	0	0	1	1.381095989525056E+002	-1.1394167E+000	-1.1389046E+000	-5.873985494508997E+001	-1.7672546E+000	37	5.8966035E-001	6.6899091E-002	-1.7285650E+000
2	0	0	1	1.384429989440832E+002	-1.1360828E+000	-1.1354605E+000	-5.639682475133327E+001	-1.7863927E+000	37	5.8817190E-001	6.4036369E-002	-1.7236323E+000
2	0	0	1	1.387762989356634E+002	-1.1327500E+000	-1.1337421E+000	-5.411595911713177E+001	-1.8047545E+000	37	5.8682299E-001	6.1353542E-002	-1.7205651E+000
2	0	0	1	1.391095989272435E+002	-1.1294166E+000	-1.1303840E+000	-5.181041426808684E+001	-1.8223524E+000	37	5.8467239E-001	5.8565661E-002	-1.7150564E+000
2	0	0	1	1.394429989188211E+002	-1.1260829E+000	-1.1272576E+000	-4.957876231955547E+001	-1.8391948E+000	37	5.8296168E-001	5.5888034E-002	-1.7102193E+000
2	0	0	1	1.397763989103987E+002	-1.1227486E+000	-1.1257763E+000	-4.732270285349318E+001	-1.8552943E+000	37	5.8100903E-001	5.3274777E-002	-1.7067853E+000
2	0	0	1	1.401264989015544E+002	-1.1192478E+000	-1.1207092E+000	-4.507243272959306E+001	-1.8714108E+000	37	5.7940441E-001	5.0513089E-002	-1.7001135E+000
2	0	0	1	1.404764988927127E+002	-1.1157479E+000	-1.1143222E+000	-4.298029302919133E+001	-1.8867944E+000	38	5.7828879E-001	4.7893893E-002	-1.6926110E+000
2	0	0	1	1.408097988842928E+002	-1.1124147E+000	-1.1142194E+000	-4.083484318512831E+001	-1.9007095E+000	38	5.7620776E-001	4.5498975E-002	-1.6904272E+000
2	0	0	1	1.411431988758704E+002	-1.1090807E+000	-1.1088693E+000	-3.882063438936802E+001	-1.9139348E+000	38	5.7399106E-001	4.3047011E-002	-1.6828604E+000
2	0	0	1	1.414765988674480E+002	-1.1057465E+000	-1.1067351E+000	-3.682351436202100E+001	-1.9264897E+000	38	5.7303590E-001	4.0753875E-002	-1.6797709E+000
2	0	0	1	1.418099988590257E+002	-1.1024128E+000	-1.1016320E+000	-3.490391824547760E+001	-1.9383919E+000	38	5.7084972E-001	3.8451273E-002	-1.6724818E+000
2	0	0	1	1.421433988506033E+002	-1.0990787E+000	-1.0990235E+000	-3.315520239373939E+001	-1.9496852E+000	38	5.6936920E-001	3.6438346E-002	-1.6683927E+000
2	0	0	1	1.424767988421809E+002	-1.0957447E+000	-1.0945280E+000	-3.127337571138389E+001	-1.9603710E+000	38	5.6795299E-001	3.4229584E-002	-1.6624810E+000
2	0	0	1	1.428100988337610E+002	-1.0924118E+000	-1.0905237E+000	-2.951157101845763E+001	-1.9704475E+000	38	5.6593704E-001	3.2183070E-002	-1.6564608E+000
2	0	0	1	1.431433988253411E+002	-1.0890787E+000	-1.0889143E+000	-2.780170646917577E+001	-1.9799442E+000	38	5.6435001E-001	3.0273676E-002	-1.6532643E+000
2	0	0	1	1.434767988169187E+002	-1.0857449E+000	-1.0878652E+000	-2.609119199848320E+001	-1.9888748E+000	38	5.6247544E-001	2.8383700E-002	-1.6503407E+000
2	0	0	1	1.438101988084964E+002	-1.0824106E+000	-1.0783063E+000	-2.447955393314305E+001	-1.9972501E+000	38	5.6098819E-001	2.6396457E-002	-1.6392945E+000
2	0	0	1	1.441435988000740E+002	-1.0790769E+000	-1.0801396E+000	-2.294606965933087E+001	-2.0051010E+000	38	5.5886012E-001	2.4784960E-002	-1.6389997E+000
2	0	0	1	1.444769987916516E+002	-1.0757425E+000	-1.0747349E+000	-2.140464927056695E+001	-2.0124393E+000	38	5.5686849E-001	2.3004323E-002	-1.6316035E+000
2	0	0	1	1.448103987832292E+002	-1.0724088E+000	-1.0752085E+000	-1.992584797369783E+001	-2.0192750E+000	38	5.5529737E-001	2.1424443E-002	-1.6305059E+000
2	0	0	1	1.451436987748093E+002	-1.0690758E+000	-1.0699793E+000	-1.852251658342163E+001	-2.0256259E+000	38	5.5354595E-001	1.9818710E-002	-1.6235253E+000
2	0	0	1	1.454769987663894E+002	-1.0657426E+000	-1.0636601E+000	-1.703380783395978E+001	-2.0314951E+000	38	5.5088544E-001	1.8118182E-002	-1.6145456E+000
2	0	0	1	1.458103987579671E+002	-1.0624089E+000	-1.0624074E+000	-1.559992067800380E+001	-2.0368781E+000	38	5.4889446E-001	1.6573470E-002	-1.6113019E+000
2	0	0	1	1.461437987495447E+002	-1.0590745E+000	-1.0612515E+000	-1.412828464246724E+001	-2.0417762E+000	38	5.4675305E-001	1.4993664E-002	-1.6080046E+000
2	0	0	1	1.464771987411223E+002	-1.0557407E+000	-1.0571898E+000	-1.267278561621963E+001	-2.0461850E+000	38	5.4477805E-001	1.3397540E-002	-1.6019678E+000
2	0	0	1	1.468105987326999E+002	-1.0524067E+000	-1.0591741E+000	-1.113058917891740E+001	-2.0500937E+000	38	5.4196966E-001	1.1789232E-002	-1.6011437E+000
2	0	0	1	1.471439987242775E+002	-1.0490727E+000	-1.0465316E+000	-9.615661295931687E+000	-2.0534935E+000	38	5.3845608E-001	1.0063093E-002	-1.5849876E+000
2	0	0	1	1.474772987158576E+002	-1.0457398E+000	-1.0458571E+000	-8.064043438946868E+000	-2.0563788E+000	38	5.3611958E-001	8.4338365E-003	-1.5819767E+000
2	0	0	1	1.478105987074377E+002	-1.0424066E+000	-1.0391935E+000	-6.505664045141202E+000	-2.0587449E+000	38	5.3130233E-001	6.7606438E-003	-1.5704958E+000
2	0	0	1	1.481606986985935E+002	-1.0389059E+000	-1.0342220E+000	-4.734469260622078E+000	-2.0606391E+000	38	5.2612621E-001	4.8964922E-003	-1.5603483E+000
2	0	0	1	1.485107986897492E+002	-1.0354047E+000	-1.0398856E+000	-2.851484456184672E+000	-2.0619214E+000	39	5.1906377E-001	2.9652177E-003	-1.5589495E+000
2	0	0	1	1.488441986813268E+002	-1.0320709E+000	-1.0312942E+000	-8.429798583828720E-001	-2.0624712E+000	39	5.0987226E-001	8.6936029E-004	-1.5411665E+000
2	0	0	1	1.491774986729070E+002	-1.0287378E+000	-1.0318415E+000	1.321079926718628E+000	-2.0623236E+000	39	4.9450940E-001	-1.3631451E-003	-1.5263510E+000
2	1	0	1	1.495107986644871E+002	-1.0254047E+000	-1.0253754E+000	3.652437747456105E+000	-2.0614247E+000	39	4.7102061E-001	-3.7451198E-003	-1.4963959E+000
2	1	0	1	1.498441986560647E+002	-1.0220709E+000	-1.0236876E+000	6.037046829524101E+000	-2.0597367E+000	39	4.4125855E-001	-6.1800499E-003	-1.4649462E+000
2	1	0	1	1.501775986476423E+002	-1.0187365E+000	-1.0183709E+000	8.155603376961643E+000	-2.0572975E+000	39	4.0666822E-001	-8.3054285E-003	-1.4250391E+000
2	1	0	1	1.505109986392199E+002	-1.0154028E+000	-1.0153890E+000	9.504905058234101E+000	-2.0542831E+000	39	3.7564740E-001	-9.6511757E-003	-1.3910364E+000
2	1	0	1	1.508443986307975E+002	-1.0120685E+000	-1.0110242E+000	9.647390168207096E+000	-2.0510292E+000	39	3.5464022E-001	-9.7537450E-003	-1.3656645E+000
2	1	0	1	1.511777986223751E+002	-1.0087348E+000	-1.0087637E+000	8.850453587212741E+000	-2.0478952E+000	39	3.4096980E-001	-8.9280158E-003	-1.3497335E+000
2	1	0	1	1.515110986139553E+002	-1.0054016E+000	-1.0071261E+000	7.827691818381027E+000	-2.0450706E+000	39	3.3275783E-001	-7.8834724E-003	-1.3398839E+000
2	1	0	1	1.518443986055354E+002	-1.0020686E+000	-1.0060873E+000	7.015217304662401E+000	-2.0425515E+000	39	3.2660839E-001	-7.0579210E-003	-1.3326957E+000
2	1	0	1	1.521777985971130E+002	-9.9873471E-001	-9.9906176E-001	6.565724208437942E+000	-2.0402369E+000	39	3.2131711E-001	-6.5595638E-003	-1.3203789E+000
2	1	0	1	1.525111985886906E+002	-9.9540055E-001	-9.9656719E-001	6.358074317940691E+000	-2.0380292E+000	39	3.1549531E-001	-6.3362485E-003	-1.3120625E+000
2	1	0	1	1.528445985802682E+002	-9.9206686E-001	-9.9243855E-001	6.310586074139870E+000	-2.0358615E+000	39	3.0940595E-001	-6.2628691E-003	-1.3018445E+000
2	1	0	1	1.531779985718458E+002	-9.8873276E-001	-9.8833758E-001	6.396656537027543E+000	-2.0336852E+000	39	3.0294833E-001	-6.3220561E-003	-1.2912859E+000
2	1	0	1	1.535113985634234E+002	-9.8539877E-001	-9.8506540E-001	6.542614489766180E+000	-2.0314689E+000	39	2.9665154E-001	-6.4449031E-003	-1.2817169E+000
2	1	0	1	1.538446985550036E+002	-9.8206574E-001	-9.8136389E-001	6.771284773142924E+000	-2.0291901E+000	39	2.8933600E-001	-6.6450946E-003	-1.2706999E+000
2	1	0	1	1.541779985465837E+002	-9.7873259E-001	-9.7958326E-001	7.062553029358426E+000	-2.0268228E+000	39	2.8302920E-001	-6.9183586E-003	-1.2626125E+000
2	1	0	1	1.545113985381613E+002	-9.7539872E-001	-9.7673744E-001	7.421924675639076E+000	-2.0243464E+000	39	2.7539587E-001	-7.2492715E-003	-1.2521334E+000
2	1	0	1	1.548447985297389E+002	-9.7206450E-001	-9.7104865E-001	7.871749521724666E+000	-2.0217335E+000	39	2.6832408E-001	-7.6438519E-003	-1.2393727E+000
2	1	0	1	1.551781985213165E+002	-9.6873093E-001	-9.6836364E-001	8.405844590380610E+000	-2.0189557E+000	39	2.5933629E-001	-8.1399139E-003	-1.2277000E+000
2	1	0	1	1.555115985128941E+002	-9.6539664E-001	-9.6221215E-001	9.011241651094139E+000	-2.0159869E+000	39	2.4951971E-001	-8.6707259E-003	-1.2117319E+000
2	1	0	1	1.558449985044717E+002	-9.6206278E-001	-9.6136218E-001	9.686117021940703E+000	-2.0128038E+000	39	2.3942977E-001	-9.3118669E-003	-1.2007920E+000
2	1	0	1	1.562115984952106E+002	-9.5839667E-001	-9.6016860E-001	1.048028888849362E+001	-2.0090096E+000	38	2.2462460E-001	-1.0062844E-002	-1.1847932E+000
2	1	0	1	1.565449984867882E+002	-9.5506257E-001	-9.5955884E-001	1.126670464250402E+001	-2.0053148E+000	38	2.0605558E-001	-1.0811066E-002	-1.1656144E+000
2	1	0	1	1.568783984783659E+002	-9.5172858E-001	-9.5277846E-001	1.206025867446469E+001	-2.0013537E+000	38	1.6180512E-001	-1.1490755E-002	-1.1145836E+000
2	1	0	0	1.570345984744199E+002	-9.4989502E-001	-9.5246464E-001	1.263237427126978E+001	-1.9994338E+000	38	1.1163051E-001	-1.2031890E-002	-1.0640951E+000
2	0	0	0	2.508317961049033E+002	-1.2862669E+000	-1.2805797E+000	-2.059255890191771E+002	-7.3322598E-003	37	6.5082228E-001	2.6370412E-001	-1.9314020E+000
2	0	0	1	2.510151961002703E+002	-1.2844338E+000	-1.2844306E+000	-2.027344009763392E+002	-4.4554748E-002	37	6.5125006E-001	2.6039827E-001	-1.9356806E+000
2	0	0	1	2.513485960918479E+002	-1.2810996E+000	-1.2822733E+000	-1.985106355669413E+002	-1.1136518E-001	37	6.4914745E-001	2.5454488E-001	-1.9314208E+000
2	0	0	1	2.516819960834255E+002	-1.2777656E+000	-1.2792616E+000	-1.943392244205406E+002	-1.7677404E-001	37	6.4776349E-001	2.4861071E-001	-1.9270251E+000
2	0	0	1	2.520152960750056E+002	-1.2744327E+000	-1.2766315E+000	-1.902274032916536E+002	-2.4079242E-001	37	6.4679211E-001	2.4285029E-001	-1.9234235E+000
2	0	0	1	2.523485960665857E+002	-1.2710996E+000	-1.2711617E+000	-1.861676643332702E+002	-3.0344889E-001	37	6.4503145E-001	2.3664920E-001	-1.9161931E+000
2	0	0	1	2.526819960581634E+002	-1.2677659E+000	-1.2662764E+000	-1.821284674743440E+002	-3.6477652E-001	37	6.4271736E-001	2.3062497E-001	-1.9089937E+000
2	0	0	1	2.530153960497410E+002	-1.2644317E+000	-1.2658623E+000	-1.779397752259403E+002	-4.2472523E-001	37	6.4128786E-001	2.2524726E-001	-1.9071503E+000
2	0	0	1	2.533487960413186E+002	-1.2610978E+000	-1.2612009E+000	-1.740497277096984E+002	-4.8333633E-001	37	6.3997632E-001	2.1951167E-001	-1.9011772E+000
2	0	0	1	2.536821960328962E+002	-1.2577635E+000	-1.2585022E+000	-1.702099297563822E+002	-5.4065430E-001	37	6.3867855E-001	2.1420957E-001	-1.8971808E+000
2	0	0	1	2.540155960244738E+002	-1.2544296E+000	-1.2569265E+000	-1.663967460773458E+002	-5.9669608E-001	37	6.3732278E-001	2.0914848E-001	-1.8942493E+000
2	0	0	1	2.543488960160539E+002	-1.2510970E+000	-1.2515099E+000	-1.625680369703693E+002	-6.5144837E-001	37	6.3593453E-001	2.0345551E-001	-1.8874445E+000
2	0	0	1	2.546821960076340E+002	-1.2477634E+000	-1.2486297E+000	-1.589134315386227E+002	-7.0495248E-001	37	6.3415200E-001	1.9842403E-001	-1.8827817E+000
2	0	0	1	2.550155959992117E+002	-1.2444297E+000	-1.2457588E+000	-1.552373608801349E+002	-7.5724947E-001	37	6.3251722E-001	1.9338830E-001	-1.8782760E+000
2	0	0	1	2.553489959907893E+002	-1.2410954E+000	-1.2447280E+000	-1.515005948743488E+002	-8.0831933E-001	37	6.3148528E-001	1.8857703E-001	-1.8762133E+000
2	0	0	1	2.556823959823669E+002	-1.2377617E+000	-1.2426232E+000	-1.478526926649495E+002	-8.5816109E-001	37	6.2930560E-001	1.8372519E-001	-1.8719288E+000
2	0	0	1	2.560157959739445E+002	-1.2344277E+000	-1.2329499E+000	-1.442353962700364E+002	-9.0678930E-001	37	6.2809670E-001	1.7783502E-001	-1.8610466E+000
2	0	0	1	2.563491959655221E+002	-1.2310936E+000	-1.2347994E+000	-1.406210812895888E+002	-9.5420951E-001	37	6.2688744E-001	1.7363882E-001	-1.8616868E+000
2	0	0	1	2.566824959571022E+002	-1.2277608E+000	-1.2264677E+000	-1.371297497341184E+002	-1.0004315E+000	37	6.2505925E-001	1.6818522E-001	-1.8515270E+000
2	0	0	1	2.570157959486824E+002	-1.2244276E+000	-1.2271025E+000	-1.337485612252904E+002	-1.0455111E+000	37	6.2327796E-001	1.6412319E-001	-1.8503804E+000
2	0	0	1	2.573491959402600E+002	-1.2210938E+000	-1.2220104E+000	-1.303715526522258E+002	-1.0894766E+000	37	6.2297732E-001	1.5931539E-001	-1.8449876E+000
2	0	0	1	2.576825959318376E+002	-1.2177596E+000	-1.2172492E+000	-1.269996612340040E+002	-1.1323116E+000	37	6.2132400E-001	1.5459023E-001	-1.8385732E+000
2	0	0	1	2.580159959234152E+002	-1.2144257E+000	-1.2145729E+000	-1.236587598065861E+002	-1.1740328E+000	37	6.1967516E-001	1.5019257E-001	-1.8342481E+000
2	0	0	1	2.583493959149928E+002	-1.2110915E+000	-1.2095855E+000	-1.204584534373917E+002	-1.2146616E+000	37	6.1812592E-001	1.4570481E-001	-1.8277115E+000
2	0	0	1	2.586827959065704E+002	-1.2077576E+000	-1.2080959E+000	-1.173343288700111E+002	-1.2542396E+000	37	6.1676383E-001	1.4175113E-001	-1.8248597E+000
2	0	0	1	2.590160958981505E+002	-1.2044247E+000	-1.2050128E+000	-1.141015282661110E+002	-1.2927499E+000	37	6.1441892E-001	1.3749380E-001	-1.8194318E+000
2	0	0	1	2.593494958897281E+002	-1.2010906E+000	-1.1999528E+000	-1.110139127909640E+002	-1.3302090E+000	37	6.1327243E-001	1.3321146E-001	-1.8132253E+000
2	0	0	1	2.596827958813083E+002	-1.1977577E+000	-1.1988235E+000	-1.077741531419679E+002	-1.3666044E+000	37	6.1217225E-001	1.2920219E-001	-1.8109957E+000
2	0	0	1	2.600161958728859E+002	-1.1944237E+000	-1.1941061E+000	-1.046705522596444E+002	-1.4019502E+000	37	6.1066777E-001	1.2498774E-001	-1.8047738E+000
2	0	0	1	2.603495958644635E+002	-1.1910896E+000	-1.1935110E+000	-1.016378456377629E+002	-1.4362739E+000	37	6.0893565E-001	1.2130589E-001	-1.8024466E+000
2	0	0	1	2.606829958560411E+002	-1.1877555E+000	-1.1860420E+000	-9.867994876519219E+001	-1.4695958E+000	37	6.0729158E-001	1.1703856E-001	-1.7933335E+000
2	0	0	1	2.610163958476187E+002	-1.1844215E+000	-1.1868386E+000	-9.573743319925165E+001	-1.5019343E+000	37	6.0601395E-001	1.1362489E-001	-1.7928526E+000
2	0	0	1	2.613496958391988E+002	-1.1810888E+000	-1.1811379E+000	-9.277407972987521E+001	-1.5332788E+000	37	6.0490704E-001	1.0957898E-001	-1.7860450E+000
2	0	0	1	2.616829958307790E+002	-1.1777554E+000	-1.1779001E+000	-8.980044626239152E+001	-1.5636394E+000	37	6.0307521E-001	1.0577595E-001	-1.7809753E+000
2	0	0	1	2.620163958223566E+002	-1.1744218E+000	-1.1787018E+000	-8.702968829016299E+001	-1.5930519E+000	37	6.0153735E-001	1.0258204E-001	-1.7802391E+000
2	0	0	1	2.623497958139342E+002	-1.1710876E+000	-1.1691281E+000	-8.413939108283148E+001	-1.6215211E+000	37	5.9969711E-001	9.8369725E-002	-1.7688252E+000
2	0	0	1	2.626831958055118E+002	-1.1677537E+000	-1.1687231E+000	-8.134397043623278E+001	-1.6490405E+000	37	5.9811282E-001	9.5068581E-002	-1.7668359E+000
2	0	0	1	2.630165957970894E+002	-1.1644197E+000	-1.1634365E+000	-7.853759504402069E+001	-1.6756253E+000	37	5.9684515E-001	9.1373511E-002	-1.7602817E+000
2	0	0	1	2.633499957886670E+002	-1.1610856E+000	-1.1658968E+000	-7.575861400160190E+001	-1.7012825E+000	37	5.9526515E-001	8.8326722E-002	-1.7611619E+000
2	0	0	1	2.636832957802471E+002	-1.1577528E+000	-1.1566285E+000	-7.305173005624374E+001	-1.7260190E+000	37	5.9397095E-001	8.4493712E-002	-1.7505994E+000
2	0	0	1	2.640166957718247E+002	-1.1544186E+000	-1.1536498E+000	-7.035033653880419E+001	-1.7498602E+000	37	5.9213054E-001	8.1159651E-002	-1.7457803E+000
2	0	0	1	2.643499957634049E+002	-1.1510859E+000	-1.1557412E+000	-6.764498209562095E+001	-1.7727948E+000	37	5.9040469E-001	7.8180097E-002	-1.7461460E+000
2	0	0	1	2.646833957549825E+002	-1.1477516E+000	-1.1489663E+000	-6.495366045788955E+001	-1.7948366E+000	37	5.8866692E-001	7.4629568E-002	-1.7376332E+000
2	0	0	1	2.650167957465601E+002	-1.1444176E+000	-1.1476955E+000	-6.243835548799689E+001	-1.8160082E+000	37	5.8713490E-001	7.1660221E-002	-1.7348304E+000
2	0	0	1	2.653501957381377E+002	-1.1410835E+000	-1.1440185E+000	-5.983872430291217E+001	-1.8363218E+000	37	5.8577299E-001	6.8456613E-002	-1.7297915E+000
2	0	0	1	2.656835957297153E+002	-1.1377497E+000	-1.1369736E+000	-5.729514979117403E+001	-1.8557786E+000	37	5.8393127E-001	6.5143071E-002	-1.7209048E+000
2	0	0	1	2.660168957212954E+002	-1.1344168E+000	-1.1324862E+000	-5.482148498149900E+001	-1.8743989E+000	37	5.8259934E-001	6.2084578E-002	-1.7150855E+000
2	0	0	1	2.663502957128730E+002	-1.1310827E+000	-1.1303473E+000	-5.232366710134670E+001	-1.8921962E+000	37	5.8071542E-001	5.9143912E-002	-1.7110627E+000
2	0	0	1	2.666835957044532E+002	-1.1277497E+000	-1.1310691E+000	-4.993220671773145E+001	-1.9091785E+000	37	5.7899570E-001	5.6476776E-002	-1.7100648E+000
2	0	0	1	2.670169956960308E+002	-1.1244156E+000	-1.1235318E+000	-4.757280211340765E+001	-1.9253662E+000	37	5.7730925E-001	5.3449556E-002	-1.7008411E+000
2	0	0	1	2.673670956871865E+002	-1.1209145E+000	-1.1212151E+000	-4.509561448098822E+001	-1.9415171E+000	37	5.7551122E-001	5.0561883E-002	-1.6967263E+000
2	0	0	1	2.677170956783448E+002	-1.1174148E+000	-1.1139843E+000	-4.276945798586564E+001	-1.9568592E+000	38	5.7366675E-001	4.7644507E-002	-1.6876512E+000
2	0	0	1	2.680503956699249E+002	-1.1140815E+000	-1.1133529E+000	-4.056579091528715E+001	-1.9706854E+000	38	5.7183355E-001	4.5164041E-002	-1.6851864E+000
2	0	0	1	2.683837956615025E+002	-1.1107478E+000	-1.1088881E+000	-3.836545714908527E+001	-1.9837817E+000	38	5.7021505E-001	4.2543001E-002	-1.6791031E+000
2	0	0	1	2.687171956530801E+002	-1.1074134E+000	-1.1074198E+000	-3.632308659038739E+001	-1.9961702E+000	38	5.6825441E-001	4.0224906E-002	-1.6756742E+000
2	0	0	1	2.690505956446577E+002	-1.1040798E+000	-1.0999637E+000	-3.425768641650591E+001	-2.0078750E+000	38	5.6643945E-001	3.7682209E-002	-1.6664031E+000
2	0	0	1	2.693839956362353E+002	-1.1007458E+000	-1.1002017E+000	-3.223866713363452E+001	-2.0188985E+000	38	5.6450474E-001	3.5469037E-002	-1.6647065E+000
2	0	0	1	2.697173956278129E+002	-1.0974115E+000	-1.0977294E+000	-3.028623878360372E+001	-2.0292568E+000	38	5.6271118E-001	3.3246096E-002	-1.6604407E+000
2	0	0	1	2.700506956193931E+002	-1.0940789E+000	-1.0911131E+000	-2.839196681374517E+001	-2.0389733E+000	38	5.6074822E-001	3.0978847E-002	-1.6518613E+000
2	0	0	1	2.703839956109732E+002	-1.0907456E+000	-1.0895956E+000	-2.653367813370677E+001	-2.0480676E+000	38	5.5852526E-001	2.8910978E-002	-1.6481209E+000
2	0	0	1	2.707173956025508E+002	-1.0874118E+000	-1.0901371E+000	-2.474027985486299E+001	-2.0565543E+000	38	5.5687928E-001	2.6970297E-002	-1.6470164E+000
2	0	0	1	2.710507955941284E+002	-1.0840776E+000	-1.0854456E+000	-2.299960157499427E+001	-2.0644526E+000	38	5.5513990E-001	2.4964817E-002	-1.6405855E+000
2	0	0	1	2.713841955857060E+002	-1.0807437E+000	-1.0819148E+000	-2.130682984520706E+001	-2.0717781E+000	38	5.5324900E-001	2.3052175E-002	-1.6351638E+000
2	0	0	1	2.717175955772836E+002	-1.0774094E+000	-1.0811640E+000	-1.969545339093537E+001	-2.0785525E+000	38	5.5072165E-001	2.1294015E-002	-1.6318856E+000
2	0	0	1	2.720509955688613E+002	-1.0740756E+000	-1.0687331E+000	-1.807786486877882E+001	-2.0847905E+000	38	5.4922056E-001	1.9320412E-002	-1.6179537E+000
2	0	0	1	2.723842955604414E+002	-1.0707428E+000	-1.0690030E+000	-1.657339454296987E+001	-2.0905066E+000	38	5.4655898E-001	1.7717008E-002	-1.6155620E+000
2	0	0	1	2.727176955520190E+002	-1.0674087E+000	-1.0693682E+000	-1.501992163886115E+001	-2.0957141E+000	38	5.4400778E-001	1.6061828E-002	-1.6133760E+000
2	0	0	1	2.730509955435991E+002	-1.0640757E+000	-1.0627518E+000	-1.349161252673269E+001	-2.1004057E+000	38	5.4216266E-001	1.4338235E-002	-1.6049144E+000
2	0	0	1	2.733843955351767E+002	-1.0607415E+000	-1.0614923E+000	-1.198378001733001E+001	-2.1045938E+000	38	5.3922057E-001	1.2720690E-002	-1.6007129E+000
2	0	0	1	2.737177955267543E+002	-1.0574076E+000	-1.0558014E+000	-1.043727800885014E+001	-2.1082718E+000	38	5.3677273E-001	1.1019693E-002	-1.5925741E+000
2	0	0	1	2.740511955183320E+002	-1.0540737E+000	-1.0566819E+000	-8.940277189542115E+000	-2.1114426E+000	38	5.3356433E-001	9.4470289E-003	-1.5902462E+000
2	0	0	1	2.743845955099096E+002	-1.0507396E+000	-1.0509946E+000	-7.446709720893978E+000	-2.1141171E+000	38	5.3019702E-001	7.8264521E-003	-1.5811917E+000
2	0	0	1	2.747178955014897E+002	-1.0474068E+000	-1.0503625E+000	-6.036213033223319E+000	-2.1163068E+000	38	5.2602345E-001	6.3402117E-003	-1.5763860E+000
2	0	0	1	2.750678954926479E+002	-1.0439065E+000	-1.0379385E+000	-4.497146940789690E+000	-2.1180842E+000	38	5.2064478E-001	4.6677617E-003	-1.5585833E+000
2	0	0	1	2.754179954838037E+002	-1.0404056E+000	-1.0423802E+000	-2.915285827953132E+000	-2.1193411E+000	39	5.1491922E-001	3.0388362E-003	-1.5572994E+000
2	0	0	1	2.757513954753813E+002	-1.0370716E+000	-1.0367326E+000	-1.213483256394422E+000	-2.1199725E+000	39	5.0678474E-001	1.2580575E-003	-1.5435174E+000
2	0	0	1	2.760847954669589E+002	-1.0337377E+000	-1.0318283E+000	6.717138195557641E-001	-2.1200039E+000	39	4.9353999E-001	-6.9309335E-004	-1.5253682E+000
2	1	0	1	2.764180954585390E+002	-1.0304048E+000	-1.0323024E+000	2.749803295763620E+000	-2.1193728E+000	39	4.7528279E-001	-2.8386286E-003	-1.5075852E+000
2	1	0	1	2.767513954501192E+002	-1.0270715E+000	-1.0311291E+000	5.056085208614036E+000	-2.1180100E+000	39	4.4872954E-001	-5.2134767E-003	-1.4798586E+000
2	1	0	1	2.770847954416968E+002	-1.0237378E+000	-1.0282737E+000	7.546096862692735E+000	-2.1158447E+000	39	4.1694066E-001	-7.7594528E-003	-1.4452144E+000
2	1	0	1	2.774348954328525E+002	-1.0202366E+000	-1.0240328E+000	1.015370490768032E+001	-2.1126540E+000	39	3.8206163E-001	-1.0397728E-002	-1.4060944E+000
2	1	0	1	2.777849954240082E+002	-1.0167356E+000	-1.0140948E+000	1.198603478948780E+001	-2.1087215E+000	38	3.5063317E-001	-1.2154976E-002	-1.3647280E+000
2	1	0	1	2.781182954155884E+002	-1.0134027E+000	-1.0156534E+000	1.234114440648644E+001	-2.1046104E+000	38	3.2859188E-001	-1.2534325E-002	-1.3442452E+000
2	1	0	1	2.784515954071685E+002	-1.0100696E+000	-1.0097239E+000	1.104655364681776E+001	-2.1006701E+000	38	3.1515861E-001	-1.1153969E-002	-1.3248825E+000
2	1	0	1	2.787849953987461E+002	-1.0067357E+000	-1.0040579E+000	9.314507585236186E+000	-2.0972483E+000	38	3.0671144E-001	-9.3523050E-003	-1.3107693E+000
2	1	0	1	2.791183953903237E+002	-1.0034016E+000	-1.0026339E+000	8.013250262514347E+000	-2.0943291E+000	38	2.9973203E-001	-8.0343569E-003	-1.3023660E+000
2	1	0	1	2.794517953819013E+002	-1.0000678E+000	-1.0029732E+000	7.203986918869646E+000	-2.0917573E+000	38	2.9507652E-001	-7.2254059E-003	-1.2980497E+000
2	1	0	1	2.797851953734789E+002	-9.9673337E-001	-1.0000089E+000	6.752665988560394E+000	-2.0893915E+000	38	2.9140016E-001	-6.7527262E-003	-1.2914091E+000
2	1	0	1	2.801185953650565E+002	-9.9339962E-001	-9.9409878E-001	6.586155255279948E+000	-2.0871265E+000	38	2.8582346E-001	-6.5472890E-003	-1.2799222E+000
2	1	0	1	2.804518953566367E+002	-9.9006671E-001	-9.9100000E-001	6.623588858104114E+000	-2.0848813E+000	38	2.8127709E-001	-6.5639764E-003	-1.2722771E+000
2	1	0	1	2.807851953482168E+002	-9.8673350E-001	-9.8768771E-001	6.743411852327256E+000	-2.0826077E+000	38	2.7610010E-001	-6.6603851E-003	-1.2637877E+000
2	1	0	1	2.811185953397944E+002	-9.8339963E-001	-9.8255664E-001	6.945260355904139E+000	-2.0802803E+000	38	2.7223459E-001	-6.8241116E-003	-1.2547913E+000
2	1	0	1	2.814519953313720E+002	-9.8006546E-001	-9.8140126E-001	7.216149482662800E+000	-2.0778735E+000	38	2.6659757E-001	-7.0819384E-003	-1.2479988E+000
2	1	0	1	2.817853953229496E+002	-9.7673178E-001	-9.7875780E-001	7.568516094498591E+000	-2.0753617E+000	38	2.6027539E-001	-7.4077439E-003	-1.2390332E+000
2	1	0	1	2.821187953145272E+002	-9.7339755E-001	-9.7482312E-001	8.019727543129591E+000	-2.0727143E+000	38	2.5338125E-001	-7.8178160E-003	-1.2282044E+000
2	1	0	1	2.824521953061048E+002	-9.7006357E-001	-9.7732949E-001	8.545630408854215E+000	-2.0699036E+000	38	2.4565792E-001	-8.3518969E-003	-1.2229874E+000
2	1	0	1	2.827854952976850E+002	-9.6673065E-001	-9.6758217E-001	9.159491505243626E+000	-2.0669029E+000	38	2.3604904E-001	-8.8625606E-003	-1.2036312E+000
2	1	0	1	2.831187952892651E+002	-9.6339762E-001	-9.6206963E-001	9.864882635288041E+000	-2.0636816E+000	38	2.2060606E-001	-9.4907042E-003	-1.1826757E+000
2	1	0	1	2.834521952808427E+002	-9.6006364E-001	-9.6220332E-001	1.057654387828594E+001	-2.0602217E+000	38	1.8270028E-001	-1.0176785E-002	-1.1449037E+000
2	1	0	1	2.837855952724203E+002	-9.5672935E-001	-9.5783478E-001	1.131186197370907E+001	-2.0565240E+000	38	6.5515958E-002	-1.0834895E-002	-1.0233507E+000
2	1	0	1	2.841189952639979E+002	-9.5339566E-001	-9.6129811E-001	1.226634192012634E+001	-2.0525434E+000	38	-1.5719379E-001	-1.1791611E-002	-8.0410433E-001
2	1	0	1	2.843689952576824E+002	-9.5089537E-001	-9.4845480E-001	1.312622454420447E+001	-2.0493634E+000	38	-6.1050290E-001	-1.2449631E-002	-3.3795190E-001
2	1	0	1	2.844419952558383E+002	-9.4989502E-001	-9.4958055E-001	1.340012624859810E+001	-2.0483937E+000	38	-7.5339204E-001	-1.2724499E-002	-1.9618851E-001
2	0	0	0	3.791059928644245E+002	-1.2719319E+000	-1.2728481E+000	-1.962953319175572E+002	-6.9896691E-003	37	6.4443403E-001	2.4985415E-001	-1.9172821E+000
2	0	0	1	3.792893928597914E+002	-1.2700987E+000	-1.2714665E+000	-1.944707344390807E+002	-4.2680707E-002	37	6.4424884E-001	2.4726303E-001	-1.9157153E+000
2	0	0	1	3.796227928513690E+002	-1.2667646E+000	-1.2698522E+000	-1.903180406161302E+002	-1.0675285E-001	37	6.4248520E-001	2.4167578E-001	-1.9123373E+000
2	0	0	1	3.799561928429466E+002	-1.2634307E+000	-1.2657260E+000	-1.862654740821256E+002	-1.6945618E-001	37	6.4131010E-001	2.3576105E-001	-1.9070361E+000
2	0	0	1	3.802894928345268E+002	-1.2600976E+000	-1.2602750E+000	-1.821998162861073E+002	-2.3078591E-001	37	6.3918352E-001	2.2962187E-001	-1.8994585E+000
2	0	0	1	3.806227928261069E+002	-1.2567645E+000	-1.2582878E+000	-1.782117816874907E+002	-2.9077518E-001	37	6.3828206E-001	2.2424170E-001	-1.8965698E+000
2	0	0	1	3.809561928176845E+002	-1.2534308E+000	-1.2510163E+000	-1.742439132839424E+002	-3.4945625E-001	37	6.3692313E-001	2.1798196E-001	-1.8879395E+000
2	0	0	1	3.812895928092621E+002	-1.2500964E+000	-1.2499301E+000	-1.704213924687874E+002	-4.0684167E-001	37	6.3507414E-001	2.1301484E-001	-1.8850043E+000
2	0	0	1	3.816229928008397E+002	-1.2467626E+000	-1.2486203E+000	-1.665891065448800E+002	-4.6295503E-001	37	6.3375950E-001	2.0800653E-001	-1.8823798E+000
2	0	0	1	3.819563927924173E+002	-1.2434286E+000	-1.2458408E+000	-1.628283942570943E+002	-5.1780033E-001	37	6.3204873E-001	2.0285825E-001	-1.8778895E+000
2	0	0	1	3.822897927839949E+002	-1.2400947E+000	-1.2388088E+000	-1.589467318980620E+002	-5.7137048E-001	37	6.3079739E-001	1.9690460E-001	-1.8696061E+000
2	0	0	1	3.826230927755751E+002	-1.2367619E+000	-1.2392898E+000	-1.552251301418050E+002	-6.2365490E-001	37	6.2891060E-001	1.9236891E-001	-1.8682003E+000
2	0	0	1	3.829563927671552E+002	-1.2334285E+000	-1.2325977E+000	-1.514660325896090E+002	-6.7468882E-001	37	6.2774855E-001	1.8669668E-001	-1.8603463E+000
2	0	0	1	3.832897927587328E+002	-1.2300948E+000	-1.2303666E+000	-1.478747072208937E+002	-7.2451925E-001	37	6.2593484E-001	1.8194009E-001	-1.8563014E+000
2	0	0	1	3.836231927503104E+002	-1.2267604E+000	-1.2270144E+000	-1.443011339510963E+002	-7.7315271E-001	37	6.2492472E-001	1.7705958E-001	-1.8519392E+000
2	0	0	1	3.839565927418880E+002	-1.2234268E+000	-1.2235044E+000	-1.406136721366015E+002	-8.2057410E-001	37	6.2325376E-001	1.7204145E-001	-1.8467581E+000
2	0	0	1	3.842899927334656E+002	-1.2200925E+000	-1.2193562E+000	-1.371318533782687E+002	-8.6680150E-001	37	6.2167740E-001	1.6721258E-001	-1.8410336E+000
2	0	0	1	3.846233927250432E+002	-1.2167586E+000	-1.2177637E+000	-1.336062360672167E+002	-9.1186118E-001	37	6.2049758E-001	1.6270082E-001	-1.8382612E+000
2	0	0	1	3.849566927166234E+002	-1.2134256E+000	-1.2151510E+000	-1.302383461984782E+002	-9.5575839E-001	37	6.1844593E-001	1.5825926E-001	-1.8335969E+000
2	0	0	1	3.852899927082035E+002	-1.2100927E+000	-1.2078934E+000	-1.267250389676569E+002	-9.9850833E-001	37	6.1712915E-001	1.5307033E-001	-1.8250225E+000
2	0	0	1	3.856233926997811E+002	-1.2067589E+000	-1.2063572E+000	-1.234012655532815E+002	-1.0401280E+000	37	6.1562639E-001	1.4886601E-001	-1.8219836E+000
2	0	0	1	3.859567926913587E+002	-1.2034247E+000	-1.2057058E+000	-1.199549897736383E+002	-1.0806246E+000	37	6.1441773E-001	1.4463042E-001	-1.8201234E+000
2	0	0	1	3.862901926829363E+002	-1.2000906E+000	-1.1993650E+000	-1.166919701082499E+002	-1.1199996E+000	37	6.1269802E-001	1.3995627E-001	-1.8120630E+000
2	0	0	1	3.866235926745139E+002	-1.1967562E+000	-1.1961306E+000	-1.133981004805623E+002	-1.1582842E+000	37	6.1112475E-001	1.3563894E-001	-1.8072554E+000
2	0	0	1	3.869569926660915E+002	-1.1934226E+000	-1.1946652E+000	-1.101040157803354E+002	-1.1954602E+000	37	6.0982180E-001	1.3153744E-001	-1.8044870E+000
2	0	0	1	3.872902926576717E+002	-1.1900897E+000	-1.1908983E+000	-1.068101146626120E+002	-1.2315301E+000	37	6.0776019E-001	1.2719998E-001	-1.7986585E+000
2	0	0	1	3.876235926492518E+002	-1.1867565E+000	-1.1886355E+000	-1.036751228148398E+002	-1.2665358E+000	37	6.0572863E-001	1.2323193E-001	-1.7943641E+000
2	0	0	1	3.879569926408294E+002	-1.1834227E+000	-1.1834238E+000	-1.004068853921469E+002	-1.3004824E+000	37	6.0503823E-001	1.1882389E-001	-1.7884619E+000
2	0	0	1	3.882903926324070E+002	-1.1800884E+000	-1.1792035E+000	-9.730501388059315E+001	-1.3333695E+000	37	6.0335380E-001	1.1474241E-001	-1.7825572E+000
2	0	0	1	3.886237926239846E+002	-1.1767547E+000	-1.1756666E+000	-9.418325630164213E+001	-1.3652124E+000	37	6.0199106E-001	1.1072811E-001	-1.7776576E+000
2	0	0	1	3.889571926155622E+002	-1.1734205E+000	-1.1748437E+000	-9.105464719853376E+001	-1.3960136E+000	37	6.0005885E-001	1.0697497E-001	-1.7749026E+000
2	0	0	1	3.892905926071398E+002	-1.1700866E+000	-1.1703066E+000	-8.795379179749534E+001	-1.4257751E+000	37	5.9886330E-001	1.0293290E-001	-1.7691698E+000
2	0	0	1	3.896238925987200E+002	-1.1667535E+000	-1.1636976E+000	-8.496912631520354E+001	-1.4545138E+000	37	5.9702879E-001	9.8878369E-002	-1.7607265E+000
2	0	0	1	3.899571925903001E+002	-1.1634204E+000	-1.1655620E+000	-8.196345650603382E+001	-1.4822550E+000	37	5.9475517E-001	9.5533490E-002	-1.7603172E+000
2	0	0	1	3.902905925818777E+002	-1.1600868E+000	-1.1598984E+000	-7.899340266196077E+001	-1.5090040E+000	37	5.9284759E-001	9.1624320E-002	-1.7527460E+000
2	0	0	1	3.906239925734553E+002	-1.1567526E+000	-1.1593126E+000	-7.596185782933185E+001	-1.5347549E+000	37	5.9226179E-001	8.8063538E-002	-1.7515744E+000
2	0	0	1	3.909573925650329E+002	-1.1534188E+000	-1.1560189E+000	-7.305651219234539E+001	-1.5595148E+000	37	5.9027982E-001	8.4454708E-002	-1.7462987E+000
2	0	0	1	3.912907925566105E+002	-1.1500845E+000	-1.1520168E+000	-7.018629578601133E+001	-1.5833099E+000	37	5.8794326E-001	8.0855787E-002	-1.7399600E+000
2	0	0	1	3.916241925481881E+002	-1.1467505E+000	-1.1547244E+000	-6.728991679499138E+001	-1.6061424E+000	37	5.8635443E-001	7.7701308E-002	-1.7410789E+000
2	0	0	1	3.919574925397683E+002	-1.1434176E+000	-1.1467893E+000	-6.442063411013942E+001	-1.6280086E+000	37	5.8475780E-001	7.3876895E-002	-1.7315471E+000
2	0	0	1	3.922907925313484E+002	-1.1400845E+000	-1.1403128E+000	-6.175306940658220E+001	-1.6489497E+000	37	5.8368874E-001	7.0417814E-002	-1.7240015E+000
2	0	0	1	3.926241925229260E+002	-1.1367508E+000	-1.1401844E+000	-5.898733155464282E+001	-1.6689901E+000	37	5.8138859E-001	6.7256436E-002	-1.7215730E+000
2	0	0	1	3.929575925145036E+002	-1.1334164E+000	-1.1353328E+000	-5.631122462344877E+001	-1.6881235E+000	37	5.7965535E-001	6.3931979E-002	-1.7149882E+000
2	0	0	1	3.932909925060812E+002	-1.1300827E+000	-1.1352515E+000	-5.367809542318196E+001	-1.7063732E+000	37	5.7807159E-001	6.0938139E-002	-1.7133231E+000
2	0	0	1	3.936243924976588E+002	-1.1267486E+000	-1.1263059E+000	-5.108629909723436E+001	-1.7237529E+000	37	5.7619196E-001	5.7538804E-002	-1.7024980E+000
2	0	0	1	3.939577924892365E+002	-1.1234145E+000	-1.1244671E+000	-4.854427359423106E+001	-1.7402754E+000	37	5.7467741E-001	5.4586440E-002	-1.6991446E+000
2	0	0	1	3.943076924803972E+002	-1.1199158E+000	-1.1201423E+000	-4.598467940064677E+001	-1.7566921E+000	37	5.7234240E-001	5.1509388E-002	-1.6924847E+000
2	0	0	1	3.946577924715530E+002	-1.1164144E+000	-1.1170487E+000	-4.344801218608256E+001	-1.7722647E+000	38	5.7041955E-001	4.8533548E-002	-1.6874683E+000
2	0	0	1	3.949911924631306E+002	-1.1130807E+000	-1.1128155E+000	-4.102247219361232E+001	-1.7862610E+000	38	5.6903195E-001	4.5650441E-002	-1.6818475E+000
2	0	0	1	3.953245924547082E+002	-1.1097466E+000	-1.1123350E+000	-3.865070846374999E+001	-1.7994572E+000	38	5.6666118E-001	4.2992536E-002	-1.6789961E+000
2	0	0	1	3.956579924462858E+002	-1.1064126E+000	-1.1083977E+000	-3.643297686406652E+001	-1.8118882E+000	38	5.6488883E-001	4.0382229E-002	-1.6732866E+000
2	0	0	1	3.959912924378659E+002	-1.1030796E+000	-1.1048409E+000	-3.421821207476294E+001	-1.8235754E+000	38	5.6228733E-001	3.7805680E-002	-1.6671282E+000
2	0	0	1	3.963245924294461E+002	-1.0997465E+000	-1.1001185E+000	-3.204143895111565E+001	-1.8345289E+000	38	5.6091851E-001	3.5249379E-002	-1.6610370E+000
2	0	0	1	3.966579924210237E+002	-1.0964125E+000	-1.0982023E+000	-2.990188672801855E+001	-1.8447675E+000	38	5.5888015E-001	3.2838322E-002	-1.6570826E+000
2	0	0	1	3.969913924126013E+002	-1.0930785E+000	-1.0942342E+000	-2.783823715867413E+001	-1.8543043E+000	38	5.5672508E-001	3.0461552E-002	-1.6509593E+000
2	0	0	1	3.973247924041789E+002	-1.0897447E+000	-1.0897783E+000	-2.584106213241188E+001	-1.8631647E+000	38	5.5482137E-001	2.8161028E-002	-1.6445997E+000
2	0	0	1	3.976581923957565E+002	-1.0864106E+000	-1.0849521E+000	-2.394676995033151E+001	-1.8713770E+000	38	5.5277389E-001	2.5981098E-002	-1.6377261E+000
2	0	0	1	3.979915923873341E+002	-1.0830767E+000	-1.0835845E+000	-2.203973614748293E+001	-1.8789557E+000	38	5.5045021E-001	2.3881918E-002	-1.6340348E+000
2	0	0	1	3.983248923789142E+002	-1.0797436E+000	-1.0795280E+000	-2.029621633183069E+001	-1.8859246E+000	38	5.4813081E-001	2.1910334E-002	-1.6276588E+000
2	0	0	1	3.986581923704944E+002	-1.0764105E+000	-1.0772865E+000	-1.852774648836396E+001	-1.8923087E+000	38	5.4592454E-001	1.9959690E-002	-1.6232110E+000
2	0	0	1	3.989915923620720E+002	-1.0730768E+000	-1.0728672E+000	-1.682034653426041E+001	-1.8981159E+000	38	5.4376245E-001	1.8045997E-002	-1.6166296E+000
2	0	0	1	3.993249923536496E+002	-1.0697423E+000	-1.0693765E+000	-1.515761891546452E+001	-1.9033614E+000	38	5.4128772E-001	1.6209202E-002	-1.6106641E+000
2	0	0	1	3.996583923452272E+002	-1.0664086E+000	-1.0662998E+000	-1.347332763957244E+001	-1.9080484E+000	38	5.3935772E-001	1.4366606E-002	-1.6056576E+000
2	0	0	1	3.999917923368048E+002	-1.0630742E+000	-1.0669236E+000	-1.185598562214576E+001	-1.9121854E+000	38	5.3571779E-001	1.2649431E-002	-1.6026413E+000
2	0	0	1	4.003251923283824E+002	-1.0597405E+000	-1.0592824E+000	-1.025451294763236E+001	-1.9157850E+000	38	5.3286469E-001	1.0862425E-002	-1.5921471E+000
2	0	0	1	4.006584923199625E+002	-1.0564079E+000	-1.0570951E+000	-8.674343129688317E+000	-1.9188530E+000	38	5.3019410E-001	9.1696056E-003	-1.5872891E+000
2	0	0	1	4.009917923115427E+002	-1.0530744E+000	-1.0517286E+000	-7.180434403593125E+000	-1.9214101E+000	38	5.2646619E-001	7.5518684E-003	-1.5781949E+000
2	0	0	1	4.013251923031203E+002	-1.0497408E+000	-1.0511010E+000	-5.779532479176702E+000	-1.9234859E+000	38	5.2277654E-001	6.0748723E-003	-1.5738776E+000
2	0	0	1	4.016752922942760E+002	-1.0462396E+000	-1.0451552E+000	-4.275315786282849E+000	-1.9251568E+000	38	5.1796591E-001	4.4683684E-003	-1.5631211E+000
2	0	0	1	4.020253922854317E+002	-1.0427386E+000	-1.0428147E+000	-2.764901579285528E+000	-1.9263260E+000	39	5.1234579E-001	2.8832802E-003	-1.5551605E+000
2	0	0	1	4.023586922770119E+002	-1.0394057E+000	-1.0409695E+000	-1.188028093764691E+000	-1.9269028E+000	39	5.0409132E-001	1.2367010E-003	-1.5450609E+000
2	0	0	1	4.026919922685920E+002	-1.0360726E+000	-1.0366926E+000	5.528389112204559E-001	-1.9269264E+000	39	4.9253479E-001	-5.7312404E-004	-1.5292274E+000
2	1	0	1	4.030253922601696E+002	-1.0327386E+000	-1.0318732E+000	2.487444171624612E+000	-1.9263365E+000	39	4.7630242E-001	-2.5667271E-003	-1.5081756E+000
2	1	0	1	4.033587922517472E+002	-1.0294044E+000	-1.0314759E+000	4.672350745414562E+000	-1.9250588E+000	39	4.5280725E-001	-4.8194174E-003	-1.4842832E+000
2	1	0	1	4.036921922433248E+002	-1.0260707E+000	-1.0254202E+000	7.068811675494231E+000	-1.9230146E+000	39	4.2403862E-001	-7.2485022E-003	-1.4494588E+000
2	1	0	1	4.040422922344806E+002	-1.0225697E+000	-1.0226371E+000	9.831087013323447E+000	-1.9199378E+000	39	3.9062807E-001	-1.0053635E-002	-1.4132652E+000
2	1	0	1	4.043921922256413E+002	-1.0190705E+000	-1.0190923E+000	1.223757065424537E+001	-1.9159950E+000	38	3.5631606E-001	-1.2471214E-002	-1.3754084E+000
2	1	0	1	4.047255922172189E+002	-1.0157367E+000	-1.0169647E+000	1.348900753851774E+001	-1.9116225E+000	38	3.2990190E-001	-1.3717844E-002	-1.3468666E+000
2	1	0	1	4.050589922087966E+002	-1.0124025E+000	-1.0128931E+000	1.292092095553491E+001	-1.9071500E+000	38	3.1273422E-001	-1.3087511E-002	-1.3256273E+000
2	1	0	1	4.053923922003742E+002	-1.0090687E+000	-1.0118370E+000	1.106036967765438E+001	-1.9031026E+000	38	3.0243468E-001	-1.1191292E-002	-1.3142717E+000
2	1	0	1	4.057257921919518E+002	-1.0057343E+000	-1.0027394E+000	9.341077176613879E+000	-1.8996582E+000	38	2.9590857E-001	-9.3666660E-003	-1.2986480E+000
2	1	0	1	4.060591921835294E+002	-1.0024008E+000	-1.0031127E+000	8.161540705417934E+000	-1.8966913E+000	38	2.9131681E-001	-8.1869448E-003	-1.2944295E+000
2	1	0	1	4.063924921751095E+002	-9.9906749E-001	-1.0023842E+000	7.496677608353281E+000	-1.8940281E+000	38	2.8804430E-001	-7.5145513E-003	-1.2904285E+000
2	1	0	1	4.067257921666896E+002	-9.9573451E-001	-9.9568486E-001	7.129454216438717E+000	-1.8915344E+000	38	2.8399155E-001	-7.0986897E-003	-1.2796764E+000
2	1	0	1	4.070591921582673E+002	-9.9240065E-001	-9.9321800E-001	6.983187027261593E+000	-1.8891222E+000	38	2.8021967E-001	-6.9358270E-003	-1.2734377E+000
2	1	0	1	4.073925921498449E+002	-9.8906642E-001	-9.8962969E-001	7.010938055014520E+000	-1.8867285E+000	38	2.7624145E-001	-6.9382326E-003	-1.2658712E+000
2	1	0	1	4.077259921414225E+002	-9.8573244E-001	-9.8349917E-001	7.128228763519530E+000	-1.8843099E+000	38	2.7192751E-001	-7.0106070E-003	-1.2554266E+000
2	1	0	1	4.080593921330001E+002	-9.8239839E-001	-9.8144948E-001	7.369200996881375E+000	-1.8818320E+000	38	2.6802671E-001	-7.2324984E-003	-1.2494762E+000
2	1	0	1	4.083927921245777E+002	-9.7906470E-001	-9.8147517E-001	7.678760042305829E+000	-1.8792638E+000	38	2.6265827E-001	-7.5365123E-003	-1.2441335E+000
2	1	0	1	4.087260921161578E+002	-9.7573143E-001	-9.7451323E-001	8.070461964142424E+000	-1.8765802E+000	38	2.5745836E-001	-7.8647723E-003	-1.2319716E+000
2	1	0	1	4.090593921077379E+002	-9.7239858E-001	-9.6954066E-001	8.557802825153686E+000	-1.8737493E+000	38	2.5120229E-001	-8.2971379E-003	-1.2207429E+000
2	1	0	1	4.093927920993156E+002	-9.6906471E-001	-9.7019708E-001	9.125516186653243E+000	-1.8707421E+000	38	2.4274963E-001	-8.8535491E-003	-1.2129467E+000
2	1	0	1	4.097261920908932E+002	-9.6573043E-001	-9.6606600E-001	9.769041359379884E+000	-1.8675325E+000	38	2.3032703E-001	-9.4375387E-003	-1.1963930E+000
2	1	0	1	4.100595920824708E+002	-9.6239644E-001	-9.6240598E-001	1.044225593460038E+001	-1.8641039E+000	38	1.9346249E-001	-1.0049690E-002	-1.1558685E+000
2	1	0	1	4.103929920740484E+002	-9.5906234E-001	-9.6332121E-001	1.110235486498962E+001	-1.8604565E+000	38	7.6786570E-002	-1.0695134E-002	-1.0401077E+000
2	1	0	1	4.107263920656260E+002	-9.5572865E-001	-9.5592082E-001	1.197594490039359E+001	-1.8565520E+000	38	-1.6690879E-001	-1.1448055E-002	-7.8901201E-001
2	1	0	1	4.110596920572061E+002	-9.5239568E-001	-9.5500821E-001	1.288326708090494E+001	-1.8523504E+000	38	-7.3039246E-001	-1.2303626E-002	-2.2461575E-001
2	1	0	1	4.112596920521537E+002	-9.5039523E-001	-9.4740140E-001	1.328368596390200E+001	-1.8497250E+000	38	-8.3500975E-001	-1.2584982E-002	-1.1239165E-001
2	1	0	1	4.112825920515752E+002	-9.4989502E-001	-9.4462228E-001	1.329837799072266E+001	-1.8494182E+000	38	-8.4152341E-001	-1.2561944E-002	-1.0309887E-001
2	0	0	0	5.054797896719538E+002	-1.2705984E+000	-1.2700596E+000	-2.038344370524087E+002	-7.2533521E-003	37	6.4375687E-001	2.5888187E-001	-1.9138165E+000
2	0	0	1	5.056631896673207E+002	-1.2687652E+000	-1.2691431E+000	-2.006307776068484E+002	-4.4077251E-002	37	6.4208859E-001	2.5462916E-001	-1.9112318E+000
2	0	0	1	5.059965896588983E+002	-1.2654313E+000	-1.2668396E+000	-1.965856936078698E+002	-1.1019270E-001	37	6.4099431E-001	2.4904254E-001	-1.9078339E+000
2	0	0	1	5.063299896504759E+002	-1.2620971E+000	-1.2607695E+000	-1.925528561191831E+002	-1.7496051E-001	37	6.3919842E-001	2.4276477E-001	-1.8999679E+000
2	0	0	1	5.066632896420560E+002	-1.2587641E+000	-1.2575339E+000	-1.885043312153241E+002	-2.3835965E-001	37	6.3790697E-001	2.3705059E-001	-1.8954408E+000
2	0	0	1	5.069965896336362E+002	-1.2554311E+000	-1.2569262E+000	-1.845187250356150E+002	-3.0042133E-001	37	6.3592154E-001	2.3192641E-001	-1.8928478E+000
2	0	0	1	5.073299896252138E+002	-1.2520974E+000	-1.2526273E+000	-1.805829944867230E+002	-3.6118019E-001	37	6.3493401E-001	2.2620317E-001	-1.8875613E+000
2	0	0	1	5.076633896167914E+002	-1.2487630E+000	-1.2484607E+000	-1.766177222547419E+002	-4.2062485E-001	37	6.3411373E-001	2.2050028E-001	-1.8825743E+000
2	0	0	1	5.079967896083690E+002	-1.2454293E+000	-1.2459134E+000	-1.727598526466850E+002	-4.7876552E-001	37	6.3179970E-001	2.1524382E-001	-1.8777131E+000
2	0	0	1	5.083301895999466E+002	-1.2420950E+000	-1.2441571E+000	-1.689720297409282E+002	-5.3563356E-001	37	6.3081074E-001	2.1022774E-001	-1.8749678E+000
2	0	0	1	5.086635895915242E+002	-1.2387612E+000	-1.2391299E+000	-1.651826214443113E+002	-5.9123278E-001	37	6.2872499E-001	2.0468272E-001	-1.8678548E+000
2	0	0	1	5.089968895831043E+002	-1.2354285E+000	-1.2367085E+000	-1.614095491410696E+002	-6.4555353E-001	37	6.2789595E-001	1.9961657E-001	-1.8646045E+000
2	0	0	1	5.093301895746845E+002	-1.2320950E+000	-1.2315472E+000	-1.576974934690940E+002	-6.9862777E-001	37	6.2589371E-001	1.9421192E-001	-1.8574409E+000
2	0	0	1	5.096635895662621E+002	-1.2287613E+000	-1.2284663E+000	-1.538641676286639E+002	-7.5046581E-001	37	6.2517959E-001	1.8901694E-001	-1.8536458E+000
2	0	0	1	5.099969895578397E+002	-1.2254270E+000	-1.2274605E+000	-1.502149664911952E+002	-8.0105931E-001	37	6.2368894E-001	1.8438295E-001	-1.8511494E+000
2	0	0	1	5.103303895494173E+002	-1.2220932E+000	-1.2209468E+000	-1.465675678371272E+002	-8.5043383E-001	37	6.2211436E-001	1.7895120E-001	-1.8430612E+000
2	0	0	1	5.106637895409949E+002	-1.2187591E+000	-1.2190061E+000	-1.430052935537765E+002	-8.9861089E-001	37	6.2100422E-001	1.7432432E-001	-1.8400103E+000
2	0	0	1	5.109971895325725E+002	-1.2154251E+000	-1.2126324E+000	-1.394303102959830E+002	-9.4559097E-001	37	6.1922419E-001	1.6907771E-001	-1.8318566E+000
2	0	0	1	5.113304895241527E+002	-1.2120922E+000	-1.2107544E+000	-1.358920539286869E+002	-9.9137032E-001	37	6.1746562E-001	1.6453190E-001	-1.8282200E+000
2	0	0	1	5.116637895157328E+002	-1.2087591E+000	-1.2084724E+000	-1.323281912527555E+002	-1.0359658E+000	37	6.1640364E-001	1.5991497E-001	-1.8248761E+000
2	0	0	1	5.119971895073104E+002	-1.2054251E+000	-1.2063888E+000	-1.287885795959774E+002	-1.0793976E+000	37	6.1414641E-001	1.5536910E-001	-1.8205352E+000
2	0	0	1	5.123305894988880E+002	-1.2020911E+000	-1.2024854E+000	-1.253920436755983E+002	-1.1216710E+000	37	6.1289728E-001	1.5078211E-001	-1.8153827E+000
2	0	0	1	5.126639894904656E+002	-1.1987573E+000	-1.1964756E+000	-1.217973939765201E+002	-1.1627833E+000	37	6.1121565E-001	1.4572762E-001	-1.8076913E+000
2	0	0	1	5.129973894820432E+002	-1.1954230E+000	-1.1980373E+000	-1.184321996782105E+002	-1.2027375E+000	37	6.1054629E-001	1.4188619E-001	-1.8085835E+000
2	0	0	1	5.133307894736208E+002	-1.1920891E+000	-1.1921295E+000	-1.150403997053913E+002	-1.2415689E+000	37	6.0839254E-001	1.3714306E-001	-1.8005221E+000
2	0	0	1	5.136640894652010E+002	-1.1887563E+000	-1.1889200E+000	-1.117158337328566E+002	-1.2792637E+000	37	6.0669816E-001	1.3282119E-001	-1.7956182E+000
2	0	0	1	5.139973894567811E+002	-1.1854229E+000	-1.1866024E+000	-1.083063329196484E+002	-1.3158325E+000	37	6.0500503E-001	1.2851655E-001	-1.7916074E+000
2	0	0	1	5.143307894483587E+002	-1.1820892E+000	-1.1795809E+000	-1.049023768823336E+002	-1.3512789E+000	37	6.0337752E-001	1.2374084E-001	-1.7829585E+000
2	0	0	1	5.146641894399363E+002	-1.1787549E+000	-1.1810368E+000	-1.016121143450645E+002	-1.3856134E+000	37	6.0168666E-001	1.2000765E-001	-1.7827234E+000
2	0	0	1	5.149975894315139E+002	-1.1754212E+000	-1.1760353E+000	-9.823812720855574E+001	-1.4188346E+000	37	6.0030162E-001	1.1553150E-001	-1.7763369E+000
2	0	0	1	5.153309894230915E+002	-1.1720870E+000	-1.1739920E+000	-9.496919555898853E+001	-1.4509516E+000	37	5.9856427E-001	1.1149308E-001	-1.7725563E+000
2	0	0	1	5.156643894146691E+002	-1.1687531E+000	-1.1691951E+000	-9.179984234059674E+001	-1.4820006E+000	37	5.9737277E-001	1.0733192E-001	-1.7665678E+000
2	0	0	1	5.159976894062493E+002	-1.1654204E+000	-1.1670442E+000	-8.858020901034615E+001	-1.5119717E+000	37	5.9548646E-001	1.0337701E-001	-1.7625306E+000
2	0	0	1	5.163309893978294E+002	-1.1620870E+000	-1.1618766E+000	-8.540226492595320E+001	-1.5408790E+000	37	5.9383452E-001	9.9226892E-002	-1.7557111E+000
2	0	0	1	5.166643893894070E+002	-1.1587533E+000	-1.1588269E+000	-8.226992483971821E+001	-1.5687453E+000	37	5.9220797E-001	9.5336609E-002	-1.7510350E+000
2	0	0	1	5.169977893809846E+002	-1.1554191E+000	-1.1547381E+000	-7.914634821848233E+001	-1.5955689E+000	37	5.9079969E-001	9.1393299E-002	-1.7455378E+000
2	0	0	1	5.173311893725622E+002	-1.1520852E+000	-1.1519151E+000	-7.608435121322725E+001	-1.6213621E+000	37	5.8851802E-001	8.7642714E-002	-1.7404331E+000
2	0	0	1	5.176645893641398E+002	-1.1487510E+000	-1.1501395E+000	-7.299031065810225E+001	-1.6461239E+000	37	5.8681601E-001	8.3949037E-002	-1.7369554E+000
2	0	0	1	5.179979893557174E+002	-1.1454171E+000	-1.1446559E+000	-7.001573817754024E+001	-1.6698768E+000	37	5.8505321E-001	8.0143929E-002	-1.7297091E+000
2	0	0	1	5.183312893472976E+002	-1.1420841E+000	-1.1451160E+000	-6.700206146512073E+001	-1.6926256E+000	37	5.8325428E-001	7.6725133E-002	-1.7283702E+000
2	0	0	1	5.186646893388752E+002	-1.1387502E+000	-1.1379422E+000	-6.406700205568183E+001	-1.7143950E+000	37	5.8109301E-001	7.2904542E-002	-1.7190351E+000
2	0	0	1	5.189979893304553E+002	-1.1354172E+000	-1.1380039E+000	-6.115373119644369E+001	-1.7351867E+000	37	5.8044446E-001	6.9593184E-002	-1.7184484E+000
2	0	0	1	5.193313893220329E+002	-1.1320832E+000	-1.1328849E+000	-5.838054492167271E+001	-1.7550370E+000	37	5.7789671E-001	6.6138439E-002	-1.7107816E+000
2	0	0	1	5.196647893136105E+002	-1.1287490E+000	-1.1272148E+000	-5.557993795696984E+001	-1.7739586E+000	37	5.7662576E-001	6.2650532E-002	-1.7038405E+000
2	0	0	1	5.199981893051881E+002	-1.1254151E+000	-1.1312141E+000	-5.287274121409416E+001	-1.7919655E+000	37	5.7398492E-001	5.9810393E-002	-1.7051990E+000
2	0	0	1	5.203315892967657E+002	-1.1220810E+000	-1.1224375E+000	-5.015670717897802E+001	-1.8090656E+000	37	5.7306719E-001	5.6297768E-002	-1.6955047E+000
2	0	0	1	5.206648892883459E+002	-1.1187483E+000	-1.1201446E+000	-4.753948722113421E+001	-1.8252729E+000	37	5.7064480E-001	5.3251099E-002	-1.6907895E+000
2	0	0	1	5.210148892795041E+002	-1.1152480E+000	-1.1176245E+000	-4.475139167901955E+001	-1.8413413E+000	37	5.6857449E-001	5.0015252E-002	-1.6861989E+000
2	0	0	1	5.213649892706599E+002	-1.1117473E+000	-1.1091541E+000	-4.218335997012480E+001	-1.8565195E+000	38	5.6631517E-001	4.6787847E-002	-1.6754693E+000
2	0	0	1	5.216983892622375E+002	-1.1084131E+000	-1.1080124E+000	-3.969694829063684E+001	-1.8701010E+000	38	5.6478137E-001	4.3984711E-002	-1.6727939E+000
2	0	0	1	5.220317892538151E+002	-1.1050792E+000	-1.1039854E+000	-3.731828077923149E+001	-1.8828729E+000	38	5.6235629E-001	4.1198839E-002	-1.6663418E+000
2	0	0	1	5.223650892453952E+002	-1.1017463E+000	-1.0983919E+000	-3.495097783199071E+001	-1.8948523E+000	38	5.6084597E-001	3.8389869E-002	-1.6592379E+000
2	0	0	1	5.226983892369753E+002	-1.0984131E+000	-1.0923181E+000	-3.266269792076082E+001	-1.9060575E+000	38	5.5851907E-001	3.5678055E-002	-1.6508372E+000
2	0	0	1	5.230317892285530E+002	-1.0950792E+000	-1.0943155E+000	-3.040059304902292E+001	-1.9165095E+000	38	5.5688566E-001	3.3267841E-002	-1.6512012E+000
2	0	0	1	5.233651892201306E+002	-1.0917450E+000	-1.0930877E+000	-2.821497403031015E+001	-1.9262189E+000	38	5.5473459E-001	3.0841440E-002	-1.6478223E+000
2	0	0	1	5.236985892117082E+002	-1.0884113E+000	-1.0910922E+000	-2.613861991096258E+001	-1.9352198E+000	38	5.5222434E-001	2.8519645E-002	-1.6433165E+000
2	0	0	1	5.240319892032858E+002	-1.0850772E+000	-1.0854269E+000	-2.410298223820712E+001	-1.9435382E+000	38	5.5006504E-001	2.6162026E-002	-1.6354920E+000
2	0	0	1	5.243653891948634E+002	-1.0817430E+000	-1.0798262E+000	-2.209010849874937E+001	-1.9511807E+000	38	5.4780698E-001	2.3853479E-002	-1.6276332E+000
2	0	0	1	5.246986891864435E+002	-1.0784100E+000	-1.0780301E+000	-2.018127306921787E+001	-1.9581687E+000	38	5.4560441E-001	2.1756019E-002	-1.6236346E+000
2	0	0	1	5.250319891780237E+002	-1.0750771E+000	-1.0773166E+000	-1.833439287740367E+001	-1.9645327E+000	38	5.4306751E-001	1.9751947E-002	-1.6203842E+000
2	0	0	1	5.253653891696013E+002	-1.0717432E+000	-1.0722680E+000	-1.653092398520789E+001	-1.9702886E+000	38	5.4088306E-001	1.7725581E-002	-1.6131511E+000
2	0	0	1	5.256987891611789E+002	-1.0684090E+000	-1.0683135E+000	-1.473112388131973E+001	-1.9754443E+000	38	5.3826350E-001	1.5737459E-002	-1.6065769E+000
2	0	0	1	5.260321891527565E+002	-1.0650752E+000	-1.0648713E+000	-1.298417268781034E+001	-1.9800086E+000	38	5.3544122E-001	1.3826473E-002	-1.6003125E+000
2	0	0	1	5.263655891443341E+002	-1.0617409E+000	-1.0593560E+000	-1.125466277114015E+001	-1.9839956E+000	38	5.3300750E-001	1.1922694E-002	-1.5923635E+000
2	0	0	1	5.266989891359117E+002	-1.0584071E+000	-1.0579076E+000	-9.591121884587437E+000	-1.9874166E+000	38	5.2920842E-001	1.0146520E-002	-1.5871160E+000
2	0	0	1	5.270322891274918E+002	-1.0550743E+000	-1.0567981E+000	-8.025469597551776E+000	-1.9903005E+000	38	5.2612680E-001	8.4813014E-003	-1.5829248E+000
2	0	0	1	5.273655891190720E+002	-1.0517410E+000	-1.0526315E+000	-6.574265197197875E+000	-1.9926826E+000	38	5.2228546E-001	6.9202785E-003	-1.5749170E+000
2	0	0	1	5.277156891102277E+002	-1.0482403E+000	-1.0481974E+000	-5.077839801252519E+000	-1.9946548E+000	38	5.1805055E-001	5.3225784E-003	-1.5662479E+000
2	0	0	1	5.280657891013834E+002	-1.0447389E+000	-1.0462494E+000	-3.583567226464510E+000	-1.9961264E+000	39	5.1305932E-001	3.7493049E-003	-1.5593088E+000
2	0	0	1	5.283991890929610E+002	-1.0414051E+000	-1.0426999E+000	-2.042634035271034E+000	-1.9970131E+000	39	5.0656790E-001	2.1298544E-003	-1.5492678E+000
2	0	0	1	5.287324890845412E+002	-1.0380722E+000	-1.0371948E+000	-3.828272243855937E-001	-1.9973656E+000	39	4.9689370E-001	3.9706641E-004	-1.5340886E+000
2	1	0	1	5.290657890761213E+002	-1.0347390E+000	-1.0356559E+000	1.458165640530158E+000	-1.9971328E+000	39	4.8297092E-001	-1.5101578E-003	-1.5186268E+000
2	1	0	1	5.293991890676989E+002	-1.0314051E+000	-1.0314434E+000	3.563044716537419E+000	-1.9962394E+000	39	4.6360371E-001	-3.6750787E-003	-1.4950471E+000
2	1	0	1	5.297325890592765E+002	-1.0280709E+000	-1.0308270E+000	5.971633949408854E+000	-1.9945897E+000	39	4.3739480E-001	-6.1557218E-003	-1.4682219E+000
2	1	0	1	5.300659890508541E+002	-1.0247371E+000	-1.0258130E+000	8.654036283951214E+000	-1.9920871E+000	39	4.0568775E-001	-8.8774227E-003	-1.4315007E+000
2	1	0	1	5.303993890424317E+002	-1.0214030E+000	-1.0214475E+000	1.124289856916781E+001	-1.9886801E+000	38	3.7193188E-001	-1.1484031E-002	-1.3933794E+000
2	1	0	1	5.307327890340093E+002	-1.0180691E+000	-1.0190871E+000	1.317278099097722E+001	-1.9845463E+000	38	3.4133965E-001	-1.3424211E-002	-1.3604267E+000
2	1	0	1	5.310660890255895E+002	-1.0147362E+000	-1.0145922E+000	1.360377715047139E+001	-1.9800251E+000	38	3.1920582E-001	-1.3802286E-002	-1.3337979E+000
2	1	0	1	5.313993890171696E+002	-1.0114031E+000	-1.0127202E+000	1.225292520581024E+001	-1.9756721E+000	38	3.0492297E-001	-1.2408786E-002	-1.3176432E+000
2	1	0	1	5.317327890087472E+002	-1.0080693E+000	-1.0080808E+000	1.024103864329041E+001	-1.9718946E+000	38	2.9786965E-001	-1.0323795E-002	-1.3059505E+000
2	1	0	1	5.320661890003248E+002	-1.0047349E+000	-1.0058556E+000	8.702526835529994E+000	-1.9687072E+000	38	2.9318425E-001	-8.7534850E-003	-1.2990398E+000
2	1	0	1	5.323995889919024E+002	-1.0014012E+000	-1.0013591E+000	7.739348245209058E+000	-1.9659303E+000	38	2.9001957E-001	-7.7498667E-003	-1.2913787E+000
2	1	0	1	5.327329889834800E+002	-9.9806684E-001	-9.9840283E-001	7.205554612250182E+000	-1.9633970E+000	38	2.8654563E-001	-7.1940459E-003	-1.2849485E+000
2	1	0	1	5.330663889750576E+002	-9.9473315E-001	-9.9580377E-001	6.934476084158632E+000	-1.9609951E+000	38	2.8327066E-001	-6.9053774E-003	-1.2790744E+000
2	1	0	1	5.333996889666378E+002	-9.9140018E-001	-9.9146730E-001	6.850889585247877E+000	-1.9586509E+000	38	2.7998665E-001	-6.7924331E-003	-1.2714540E+000
2	1	0	1	5.337329889582179E+002	-9.8806715E-001	-9.8842043E-001	6.905948809292710E+000	-1.9563081E+000	38	2.7637962E-001	-6.8259807E-003	-1.2648001E+000
2	1	0	1	5.340663889497955E+002	-9.8473310E-001	-9.8481244E-001	7.068015738105998E+000	-1.9539267E+000	38	2.7295074E-001	-6.9606700E-003	-1.2577631E+000
2	1	0	1	5.343997889413731E+002	-9.8139888E-001	-9.8200250E-001	7.357194771642980E+000	-1.9514685E+000	38	2.6860124E-001	-7.2247838E-003	-1.2506037E+000
2	1	0	1	5.347331889329507E+002	-9.7806519E-001	-9.7711211E-001	7.703840381099354E+000	-1.9489025E+000	38	2.6415092E-001	-7.5275158E-003	-1.2412630E+000
2	1	0	1	5.350665889245283E+002	-9.7473103E-001	-9.7561508E-001	8.158882927967738E+000	-1.9462006E+000	38	2.5914702E-001	-7.9599293E-003	-1.2347621E+000
2	1	0	1	5.353999889161059E+002	-9.7139716E-001	-9.7158468E-001	8.691645048689566E+000	-1.9433327E+000	38	2.5365320E-001	-8.4446687E-003	-1.2252378E+000
2	1	0	1	5.357332889076861E+002	-9.6806425E-001	-9.6787202E-001	9.294008545952153E+000	-1.9402754E+000	38	2.4607261E-001	-8.9954110E-003	-1.2139447E+000
2	1	0	1	5.360665888992662E+002	-9.6473104E-001	-9.6678531E-001	9.963494077612623E+000	-1.9370046E+000	38	2.3352228E-001	-9.6325595E-003	-1.2003076E+000
2	1	0	1	5.363999888908438E+002	-9.6139705E-001	-9.6286803E-001	1.059292986843551E+001	-1.9335144E+000	38	1.9328408E-001	-1.0199593E-002	-1.1561521E+000
2	1	0	1	5.367333888824214E+002	-9.5806277E-001	-9.5813501E-001	1.127032444554737E+001	-1.9298067E+000	38	6.5402962E-002	-1.0798492E-002	-1.0235380E+000
2	1	0	1	5.370667888739990E+002	-9.5472920E-001	-9.5219553E-001	1.218094286466922E+001	-1.9258331E+000	38	-2.2816032E-001	-1.1598639E-002	-7.2403520E-001
2	1	0	1	5.373834888659985E+002	-9.5156211E-001	-9.4889563E-001	1.305399870135443E+001	-1.9217792E+000	38	-7.6312941E-001	-1.2386883E-002	-1.8576622E-001
2	1	0	1	5.375231888624694E+002	-9.4989502E-001	-9.5715553E-001	1.402842539548874E+001	-1.9199245E+000	38	-8.2756931E-001	-1.3427385E-002	-1.2958622E-001
2	0	0	0	6.316871864836867E+002	-1.2652645E+000	-1.2844990E+000	-2.074115069520249E+002	-7.3883706E-003	37	6.4314675E-001	2.6641989E-001	-1.9276458E+000
2	0	0	1	6.318705864790536E+002	-1.2634312E+000	-1.2656798E+000	-2.037505756279570E+002	-4.4796675E-002	37	6.4315349E-001	2.5788298E-001	-1.9088333E+000
2	0	0	1	6.322039864706312E+002	-1.2600973E+000	-1.2601773E+000	-1.996130927729278E+002	-1.1194816E-001	37	6.4113486E-001	2.5154787E-001	-1.9013121E+000
2	0	0	1	6.325373864622088E+002	-1.2567632E+000	-1.2589763E+000	-1.953305610244524E+002	-1.7770144E-001	37	6.3993841E-001	2.4591656E-001	-1.8989148E+000
2	0	0	1	6.328706864537889E+002	-1.2534301E+000	-1.2526908E+000	-1.913107139332126E+002	-2.4205427E-001	37	6.3847035E-001	2.3965317E-001	-1.8911612E+000
2	0	0	1	6.332039864453691E+002	-1.2500970E+000	-1.2513216E+000	-1.872660669838691E+002	-3.0506712E-001	37	6.3736427E-001	2.3433007E-001	-1.8886858E+000
2	0	0	1	6.335373864369467E+002	-1.2467633E+000	-1.2503600E+000	-1.833998129674005E+002	-3.6678147E-001	37	6.3590270E-001	2.2931579E-001	-1.8862627E+000
2	0	0	1	6.338707864285243E+002	-1.2434292E+000	-1.2440747E+000	-1.794064651240179E+002	-4.2718211E-001	37	6.3402623E-001	2.2319505E-001	-1.8781009E+000
2	0	0	1	6.342041864201019E+002	-1.2400954E+000	-1.2407668E+000	-1.755189940112207E+002	-4.8626813E-001	37	6.3304585E-001	2.1777813E-001	-1.8738127E+000
2	0	0	1	6.345375864116795E+002	-1.2367612E+000	-1.2357600E+000	-1.715926231348062E+002	-5.4405189E-001	37	6.3124424E-001	2.1204729E-001	-1.8670042E+000
2	0	0	1	6.348709864032571E+002	-1.2334272E+000	-1.2365466E+000	-1.676523849421078E+002	-6.0052145E-001	37	6.2947619E-001	2.0730999E-001	-1.8660228E+000
2	0	0	1	6.352042863948373E+002	-1.2300944E+000	-1.2301663E+000	-1.637365669685450E+002	-6.5567034E-001	37	6.2813830E-001	2.0142321E-001	-1.8583046E+000
2	0	0	1	6.355375863864174E+002	-1.2267611E+000	-1.2264726E+000	-1.599012968002312E+002	-7.0953298E-001	37	6.2665915E-001	1.9611456E-001	-1.8531318E+000
2	0	0	1	6.358709863779950E+002	-1.2234274E+000	-1.2229762E+000	-1.560993642888737E+002	-7.6213944E-001	37	6.2521166E-001	1.9090581E-001	-1.8481879E+000
2	0	0	1	6.362043863695726E+002	-1.2200930E+000	-1.2212102E+000	-1.523611406608607E+002	-8.1348395E-001	37	6.2328976E-001	1.8606499E-001	-1.8445001E+000
2	0	0	1	6.365377863611502E+002	-1.2167593E+000	-1.2173266E+000	-1.486333499409939E+002	-8.6358857E-001	37	6.2260270E-001	1.8093534E-001	-1.8399293E+000
2	0	0	1	6.368711863527278E+002	-1.2134254E+000	-1.2140945E+000	-1.448936779550521E+002	-9.1245258E-001	37	6.2084073E-001	1.7591462E-001	-1.8349352E+000
2	0	0	1	6.372045863443054E+002	-1.2100911E+000	-1.2104839E+000	-1.411804660084932E+002	-9.6007353E-001	37	6.1921620E-001	1.7089668E-001	-1.8297001E+000
2	0	0	1	6.375378863358856E+002	-1.2067584E+000	-1.2069544E+000	-1.374864319151952E+002	-1.0064408E+000	37	6.1714786E-001	1.6593985E-001	-1.8241022E+000
2	0	0	1	6.378711863274657E+002	-1.2034252E+000	-1.2042350E+000	-1.338327901257549E+002	-1.0515820E+000	37	6.1600006E-001	1.6116613E-001	-1.8202350E+000
2	0	0	1	6.382045863190433E+002	-1.2000914E+000	-1.2000281E+000	-1.301183437861641E+002	-1.0955129E+000	37	6.1455393E-001	1.5614566E-001	-1.8145820E+000
2	0	0	1	6.385379863106209E+002	-1.1967572E+000	-1.1959550E+000	-1.265774144077380E+002	-1.1382354E+000	37	6.1235940E-001	1.5138090E-001	-1.8083144E+000
2	0	0	1	6.388713863021985E+002	-1.1934233E+000	-1.1929069E+000	-1.230034226629655E+002	-1.1797731E+000	37	6.1138821E-001	1.4673163E-001	-1.8042951E+000
2	0	0	1	6.392047862937761E+002	-1.1900890E+000	-1.1913023E+000	-1.193929108217146E+002	-1.2201182E+000	37	6.0961556E-001	1.4223304E-001	-1.8009179E+000
2	0	0	1	6.395381862853537E+002	-1.1867551E+000	-1.1871306E+000	-1.158578928266538E+002	-1.2592670E+000	37	6.0792112E-001	1.3753845E-001	-1.7950517E+000
2	0	0	1	6.398714862769339E+002	-1.1834223E+000	-1.1824030E+000	-1.123557388290149E+002	-1.2972307E+000	37	6.0624838E-001	1.3284975E-001	-1.7886513E+000
2	0	0	1	6.402048862685115E+002	-1.1800883E+000	-1.1829276E+000	-1.088306806319024E+002	-1.3340354E+000	37	6.0465193E-001	1.2873882E-001	-1.7875795E+000
2	0	0	1	6.405381862600916E+002	-1.1767554E+000	-1.1791036E+000	-1.053559949235973E+002	-1.3696632E+000	37	6.0260504E-001	1.2422563E-001	-1.7817087E+000
2	0	0	1	6.408715862516692E+002	-1.1734211E+000	-1.1736737E+000	-1.019044240504575E+002	-1.4041456E+000	37	6.0132426E-001	1.1960255E-001	-1.7749979E+000
2	0	0	1	6.412049862432468E+002	-1.1700872E+000	-1.1698760E+000	-9.846752389473590E+001	-1.4374779E+000	37	6.0046506E-001	1.1519479E-001	-1.7703410E+000
2	0	0	1	6.415383862348244E+002	-1.1667531E+000	-1.1690079E+000	-9.510169249839620E+001	-1.4696754E+000	37	5.9819913E-001	1.1117463E-001	-1.7672070E+000
2	0	0	1	6.418717862264020E+002	-1.1634192E+000	-1.1617910E+000	-9.166986275603472E+001	-1.5007381E+000	37	5.9640449E-001	1.0650122E-001	-1.7581954E+000
2	0	0	1	6.422050862179822E+002	-1.1600864E+000	-1.1652548E+000	-8.828158552556638E+001	-1.5306518E+000	37	5.9433061E-001	1.0287055E-001	-1.7595854E+000
2	0	0	1	6.425383862095623E+002	-1.1567531E+000	-1.1587985E+000	-8.491296868745235E+001	-1.5594465E+000	37	5.9267175E-001	9.8397017E-002	-1.7514702E+000
2	0	0	1	6.428717862011399E+002	-1.1534194E+000	-1.1529803E+000	-8.162848354688117E+001	-1.5871376E+000	37	5.9099865E-001	9.4116032E-002	-1.7439790E+000
2	0	0	1	6.432051861927175E+002	-1.1500851E+000	-1.1522818E+000	-7.840765363199095E+001	-1.6137389E+000	37	5.8996564E-001	9.0347707E-002	-1.7422473E+000
2	0	0	1	6.435385861842951E+002	-1.1467513E+000	-1.1469152E+000	-7.519241627575138E+001	-1.6392680E+000	37	5.8770651E-001	8.6239323E-002	-1.7346218E+000
2	0	0	1	6.438719861758727E+002	-1.1434172E+000	-1.1466200E+000	-7.203325452266608E+001	-1.6637366E+000	37	5.8560860E-001	8.2594775E-002	-1.7322286E+000
2	0	0	1	6.442053861674503E+002	-1.1400832E+000	-1.1386559E+000	-6.895396198373032E+001	-1.6871692E+000	37	5.8399200E-001	7.8514837E-002	-1.7226479E+000
2	0	0	1	6.445386861590305E+002	-1.1367505E+000	-1.1368085E+000	-6.585997326679603E+001	-1.7095602E+000	37	5.8147258E-001	7.4870177E-002	-1.7182810E+000
2	0	0	1	6.448720861506081E+002	-1.1334163E+000	-1.1335176E+000	-6.283818730352277E+001	-1.7309375E+000	37	5.8054382E-001	7.1228191E-002	-1.7140615E+000
2	0	0	1	6.452053861421882E+002	-1.1300833E+000	-1.1289704E+000	-5.995109660231378E+001	-1.7513278E+000	37	5.7853925E-001	6.7683011E-002	-1.7075096E+000
2	0	0	1	6.455387861337658E+002	-1.1267492E+000	-1.1264101E+000	-5.700718121610157E+001	-1.7707514E+000	37	5.7627380E-001	6.4213470E-002	-1.7026839E+000
2	0	0	1	6.458721861253434E+002	-1.1234151E+000	-1.1206394E+000	-5.405697104831711E+001	-1.7891909E+000	37	5.7425421E-001	6.0578372E-002	-1.6948936E+000
2	0	0	1	6.462055861169210E+002	-1.1200811E+000	-1.1184167E+000	-5.128337447292890E+001	-1.8066748E+000	37	5.7223600E-001	5.7356182E-002	-1.6906526E+000
2	0	0	1	6.465389861084986E+002	-1.1167471E+000	-1.1152041E+000	-4.846332455112332E+001	-1.8232245E+000	37	5.7081085E-001	5.4046497E-002	-1.6860149E+000
2	0	0	1	6.468888860996594E+002	-1.1132483E+000	-1.1157652E+000	-4.573752925426510E+001	-1.8395935E+000	37	5.6781101E-001	5.1032346E-002	-1.6835762E+000
2	0	0	1	6.472389860908152E+002	-1.1097473E+000	-1.1102402E+000	-4.291558957177358E+001	-1.8550427E+000	38	5.6546307E-001	4.7646612E-002	-1.6757033E+000
2	0	0	1	6.475723860823928E+002	-1.1064132E+000	-1.1049479E+000	-4.029810306641721E+001	-1.8688322E+000	38	5.6439364E-001	4.4527307E-002	-1.6693416E+000
2	0	0	1	6.479057860739704E+002	-1.1030791E+000	-1.1021353E+000	-3.776236359818435E+001	-1.8817639E+000	38	5.6187171E-001	4.1619234E-002	-1.6640069E+000
2	0	0	1	6.482391860655480E+002	-1.0997452E+000	-1.1046580E+000	-3.527488628161638E+001	-1.8938591E+000	38	5.5999404E-001	3.8966686E-002	-1.6646521E+000
2	0	0	1	6.485724860571281E+002	-1.0964124E+000	-1.0935682E+000	-3.286900086941841E+001	-1.9051348E+000	38	5.5792630E-001	3.5944495E-002	-1.6514945E+000
2	0	0	1	6.489057860487083E+002	-1.0930792E+000	-1.0915823E+000	-3.051652052708550E+001	-1.9156168E+000	38	5.5642545E-001	3.3311293E-002	-1.6480078E+000
2	0	0	1	6.492391860402859E+002	-1.0897454E+000	-1.0910662E+000	-2.820342129870517E+001	-1.9253237E+000	38	5.5314785E-001	3.0771801E-002	-1.6442142E+000
2	0	0	1	6.495725860318635E+002	-1.0864111E+000	-1.0897610E+000	-2.605276349903716E+001	-1.9342865E+000	38	5.5111402E-001	2.8391287E-002	-1.6408751E+000
2	0	0	1	6.499059860234411E+002	-1.0830773E+000	-1.0845294E+000	-2.387058882443989E+001	-1.9425259E+000	38	5.4901618E-001	2.5888355E-002	-1.6335456E+000
2	0	0	1	6.502393860150187E+002	-1.0797434E+000	-1.0810779E+000	-2.160567710529730E+001	-1.9500268E+000	38	5.4660153E-001	2.3357421E-002	-1.6276795E+000
2	0	0	1	6.505727860065963E+002	-1.0764092E+000	-1.0832803E+000	-1.956219224306182E+001	-1.9568089E+000	38	5.4371458E-001	2.1191338E-002	-1.6269948E+000
2	0	0	1	6.509060859981764E+002	-1.0730764E+000	-1.0732037E+000	-1.765538057732292E+001	-1.9629338E+000	38	5.4118609E-001	1.8947819E-002	-1.6143898E+000
2	0	0	1	6.512393859897566E+002	-1.0697429E+000	-1.0686353E+000	-1.573953773930612E+001	-1.9684210E+000	38	5.3885072E-001	1.6819827E-002	-1.6074860E+000
2	0	0	1	6.515727859813342E+002	-1.0664093E+000	-1.0667928E+000	-1.382469516904342E+001	-1.9732704E+000	38	5.3570849E-001	1.4748086E-002	-1.6025014E+000
2	0	0	1	6.519061859729118E+002	-1.0630753E+000	-1.0656216E+000	-1.200448441451643E+001	-1.9774971E+000	38	5.3280723E-001	1.2792238E-002	-1.5984288E+000
2	0	0	1	6.522395859644894E+002	-1.0597413E+000	-1.0605133E+000	-1.030117430005618E+001	-1.9811372E+000	38	5.2972478E-001	1.0924532E-002	-1.5902381E+000
2	0	0	1	6.525729859560670E+002	-1.0564071E+000	-1.0569801E+000	-8.677239270303147E+000	-1.9842228E+000	38	5.2628583E-001	9.1716694E-003	-1.5832660E+000
2	0	0	1	6.529063859476446E+002	-1.0530732E+000	-1.0540477E+000	-7.150585981341067E+000	-1.9867837E+000	38	5.2297622E-001	7.5370586E-003	-1.5770240E+000
2	0	0	1	6.532396859392247E+002	-1.0497403E+000	-1.0506091E+000	-5.703747678476056E+000	-1.9888493E+000	38	5.1891637E-001	5.9924093E-003	-1.5695255E+000
2	0	0	1	6.535896859303830E+002	-1.0462402E+000	-1.0459586E+000	-4.161193310572109E+000	-1.9904909E+000	38	5.1417565E-001	4.3524359E-003	-1.5601343E+000
2	0	0	1	6.539397859215387E+002	-1.0427393E+000	-1.0429590E+000	-2.584654830019687E+000	-1.9916110E+000	39	5.0790328E-001	2.6956890E-003	-1.5508623E+000
2	0	0	1	6.542731859131163E+002	-1.0394049E+000	-1.0403087E+000	-9.468573709360086E-001	-1.9921212E+000	39	4.9985960E-001	9.8502403E-004	-1.5401683E+000
2	0	0	1	6.546065859046939E+002	-1.0360712E+000	-1.0357953E+000	8.707834109791541E-001	-1.9920535E+000	39	4.8802567E-001	-9.0195338E-004	-1.5238210E+000
2	1	0	1	6.549398858962741E+002	-1.0327383E+000	-1.0323642E+000	2.930299137086884E+000	-1.9913378E+000	39	4.7036391E-001	-3.0251360E-003	-1.5027282E+000
2	1	0	1	6.552731858878542E+002	-1.0294051E+000	-1.0299215E+000	5.307605664701072E+000	-1.9898796E+000	39	4.4643116E-001	-5.4664174E-003	-1.4763527E+000
2	1	0	1	6.556065858794318E+002	-1.0260714E+000	-1.0268869E+000	7.979078238672411E+000	-1.9875767E+000	39	4.1684613E-001	-8.1936112E-003	-1.4437331E+000
2	1	0	1	6.559566858705875E+002	-1.0225700E+000	-1.0224878E+000	1.077930744137644E+001	-1.9841706E+000	39	3.8085040E-001	-1.1021710E-002	-1.4033382E+000
2	1	0	1	6.563067858617433E+002	-1.0190693E+000	-1.0185833E+000	1.301725922888934E+001	-1.9799205E+000	38	3.4643966E-001	-1.3259163E-002	-1.3650229E+000
2	1	0	1	6.566400858533234E+002	-1.0157362E+000	-1.0168951E+000	1.383908558198159E+001	-1.9753621E+000	38	3.2333064E-001	-1.4072898E-002	-1.3402257E+000
2	1	0	1	6.569733858449035E+002	-1.0124031E+000	-1.0131056E+000	1.288380120270421E+001	-1.9708430E+000	38	3.0689389E-001	-1.3052652E-002	-1.3199995E+000
2	1	0	1	6.573067858364811E+002	-1.0090692E+000	-1.0078278E+000	1.085956036720773E+001	-1.9668349E+000	38	2.9887295E-001	-1.0944567E-002	-1.3067007E+000
2	1	0	1	6.576401858280587E+002	-1.0057350E+000	-1.0069771E+000	9.161734578611771E+000	-1.9634484E+000	38	2.9445148E-001	-9.2256572E-003	-1.3014286E+000
2	1	0	1	6.579735858196364E+002	-1.0024014E+000	-1.0020182E+000	8.030470690457378E+000	-1.9605289E+000	38	2.9115590E-001	-8.0466783E-003	-1.2931741E+000
2	1	0	1	6.583069858112140E+002	-9.9906689E-001	-1.0005513E+000	7.390875175620153E+000	-1.9578984E+000	38	2.8873479E-001	-7.3949499E-003	-1.2892861E+000
2	1	0	1	6.586403858027916E+002	-9.9573332E-001	-9.9567819E-001	7.056814548744654E+000	-1.9554266E+000	38	2.8536353E-001	-7.0263161E-003	-1.2810417E+000
2	1	0	1	6.589736857943717E+002	-9.9240029E-001	-9.9284434E-001	6.942405397928638E+000	-1.9530287E+000	38	2.8249463E-001	-6.8927282E-003	-1.2753390E+000
2	1	0	1	6.593069857859518E+002	-9.8906726E-001	-9.8958969E-001	6.951929383859124E+000	-1.9506454E+000	38	2.7899161E-001	-6.8795579E-003	-1.2685813E+000
2	1	0	1	6.596403857775294E+002	-9.8573327E-001	-9.8620570E-001	7.096248033917391E+000	-1.9482340E+000	38	2.7595785E-001	-6.9983602E-003	-1.2621635E+000
2	1	0	1	6.599737857691071E+002	-9.8239905E-001	-9.8043966E-001	7.352428107906348E+000	-1.9457566E+000	38	2.7171114E-001	-7.2086123E-003	-1.2521508E+000
2	1	0	1	6.603071857606847E+002	-9.7906536E-001	-9.7870743E-001	7.687218909134515E+000	-1.9431800E+000	38	2.6814929E-001	-7.5235381E-003	-1.2468567E+000
2	1	0	1	6.606405857522623E+002	-9.7573102E-001	-9.7632915E-001	8.102250972374705E+000	-1.9404763E+000	38	2.6373354E-001	-7.9104640E-003	-1.2400627E+000
2	1	0	1	6.609739857438399E+002	-9.7239733E-001	-9.7270942E-001	8.615761679444802E+000	-1.9376161E+000	38	2.5944179E-001	-8.3806328E-003	-1.2321513E+000
2	1	0	1	6.613072857354200E+002	-9.6906424E-001	-9.7119635E-001	9.187038476540145E+000	-1.9345760E+000	38	2.5330898E-001	-8.9224186E-003	-1.2245053E+000
2	1	0	1	6.616405857270001E+002	-9.6573114E-001	-9.6704978E-001	9.788173954622721E+000	-1.9313401E+000	38	2.4544406E-001	-9.4656516E-003	-1.2124939E+000
2	1	0	1	6.619739857185778E+002	-9.6239716E-001	-9.6421748E-001	1.042099723595123E+001	-1.9278984E+000	38	2.3031667E-001	-1.0048108E-002	-1.1945342E+000
2	1	0	1	6.623073857101554E+002	-9.5906305E-001	-9.6260446E-001	1.103189935639631E+001	-1.9242500E+000	38	1.6615885E-001	-1.0619355E-002	-1.1287633E+000
2	1	0	1	6.626407857017330E+002	-9.5572937E-001	-9.5614731E-001	1.168325548946603E+001	-1.9203919E+000	38	3.8947721E-003	-1.1170913E-002	-9.6004206E-001
2	1	0	1	6.629741856933106E+002	-9.5239520E-001	-9.5365077E-001	1.253879840916187E+001	-1.9162804E+000	38	-4.4874513E-001	-1.1957635E-002	-5.0490564E-001
2	1	0	0	6.631741856882581E+002	-9.5039505E-001	-9.5412058E-001	1.295440561919857E+001	-1.9137089E+000	38	-7.7269226E-001	-1.2360065E-002	-1.8142831E-001
2	1	0	0	6.631971856876771E+002	-9.4989502E-001	-9.5169294E-001	1.339687693119049E+001	-1.9134048E+000	38	-7.8847528E-001	-1.2749713E-002	-1.6321766E-001
2	0	0	0	7.572277833122644E+002	-1.2635976E+000	-1.2656782E+000	-2.119469070434570E+002	-7.5454097E-003	37	6.4397013E-001	2.6825657E-001	-1.9096483E+000
2	0	0	1	7.574111833076313E+002	-1.2617645E+000	-1.2626638E+000	-2.075897463403890E+002	-4.5652002E-002	37	6.4177853E-001	2.6211607E-001	-1.9044423E+000
2	0	0	1	7.577445832992089E+002	-1.2584304E+000	-1.2596927E+000	-2.034275507570092E+002	-1.1406566E-001	37	6.4008719E-001	2.5625619E-001	-1.8997798E+000
2	0	0	1	7.580779832907865E+002	-1.2550962E+000	-1.2554221E+000	-1.992233721802420E+002	-1.8108951E-001	37	6.3872725E-001	2.5010943E-001	-1.8941493E+000
2	0	0	1	7.584112832823666E+002	-1.2517633E+000	-1.2530464E+000	-1.951740465027460E+002	-2.4672201E-001	37	6.3671631E-001	2.4456213E-001	-1.8897626E+000
2	0	0	1	7.587445832739468E+002	-1.2484303E+000	-1.2495086E+000	-1.912217047365380E+002	-3.1102049E-001	37	6.3594717E-001	2.3893316E-001	-1.8854558E+000
2	0	0	1	7.590779832655244E+002	-1.2450966E+000	-1.2438848E+000	-1.871478109148137E+002	-3.7400454E-001	37	6.3452691E-001	2.3279032E-001	-1.8784118E+000
2	0	0	1	7.594113832571020E+002	-1.2417622E+000	-1.2425848E+000	-1.831333486086678E+002	-4.3563947E-001	37	6.3283718E-001	2.2755872E-001	-1.8754220E+000
2	0	0	1	7.597447832486796E+002	-1.2384285E+000	-1.2396407E+000	-1.791410008698513E+002	-4.9593759E-001	37	6.3150024E-001	2.2207049E-001	-1.8711410E+000
2	0	0	1	7.600781832402572E+002	-1.2350943E+000	-1.2380381E+000	-1.751426228801801E+002	-5.5490273E-001	37	6.3016403E-001	2.1683323E-001	-1.8682021E+000
2	0	0	1	7.604115832318348E+002	-1.2317603E+000	-1.2314734E+000	-1.713015449994943E+002	-6.1256069E-001	37	6.2866801E-001	2.1095331E-001	-1.8601415E+000
2	0	0	1	7.607448832234149E+002	-1.2284275E+000	-1.2289660E+000	-1.673770934569689E+002	-6.6890776E-001	37	6.2751597E-001	2.0570076E-001	-1.8564820E+000
2	0	0	1	7.610781832149951E+002	-1.2250942E+000	-1.2266204E+000	-1.636297709234345E+002	-7.2397798E-001	37	6.2589574E-001	2.0071162E-001	-1.8525162E+000
2	0	0	1	7.614115832065727E+002	-1.2217606E+000	-1.2214015E+000	-1.597686487320500E+002	-7.7779603E-001	37	6.2423688E-001	1.9514166E-001	-1.8456383E+000
2	0	0	1	7.617449831981503E+002	-1.2184261E+000	-1.2176538E+000	-1.558715571128932E+002	-8.3031958E-001	37	6.2278169E-001	1.8979758E-001	-1.8404355E+000
2	0	0	1	7.620783831897279E+002	-1.2150925E+000	-1.2192941E+000	-1.521393339570495E+002	-8.8157398E-001	37	6.2111688E-001	1.8550259E-001	-1.8404109E+000
2	0	0	1	7.624117831813055E+002	-1.2117581E+000	-1.2107131E+000	-1.482188155882222E+002	-9.3155068E-001	37	6.1947799E-001	1.7945047E-001	-1.8301911E+000
2	0	0	1	7.627451831728831E+002	-1.2084243E+000	-1.2107303E+000	-1.444088308252474E+002	-9.8024803E-001	37	6.1852366E-001	1.7484015E-001	-1.8292539E+000
2	0	0	1	7.630784831644633E+002	-1.2050914E+000	-1.2052189E+000	-1.404823715105372E+002	-1.0276431E+000	37	6.1647290E-001	1.6931202E-001	-1.8216918E+000
2	0	0	1	7.634117831560434E+002	-1.2017583E+000	-1.1997668E+000	-1.368668731706503E+002	-1.0737805E+000	37	6.1533821E-001	1.6420832E-001	-1.8151050E+000
2	0	0	1	7.637451831476210E+002	-1.1984245E+000	-1.1983768E+000	-1.331429450883496E+002	-1.1187067E+000	37	6.1328483E-001	1.5955542E-001	-1.8116616E+000
2	0	0	1	7.640785831391986E+002	-1.1950902E+000	-1.1962568E+000	-1.294801638525867E+002	-1.1624038E+000	37	6.1210018E-001	1.5489152E-001	-1.8083570E+000
2	0	0	1	7.644119831307762E+002	-1.1917565E+000	-1.1911483E+000	-1.257237481352531E+002	-1.2048594E+000	37	6.1039507E-001	1.4975563E-001	-1.8015434E+000
2	0	0	1	7.647453831223538E+002	-1.1884222E+000	-1.1906661E+000	-1.221422364271871E+002	-1.2460941E+000	37	6.0843188E-001	1.4543062E-001	-1.7990980E+000
2	0	0	1	7.650787831139314E+002	-1.1850883E+000	-1.1843987E+000	-1.184501231988368E+002	-1.2861180E+000	37	6.0720402E-001	1.4029217E-001	-1.7916026E+000
2	0	0	1	7.654120831055116E+002	-1.1817555E+000	-1.1760632E+000	-1.148782300041926E+002	-1.3249208E+000	37	6.0597247E-001	1.3510406E-001	-1.7820356E+000
2	0	0	1	7.657453830970917E+002	-1.1784223E+000	-1.1808714E+000	-1.112856143234409E+002	-1.3625333E+000	37	6.0396922E-001	1.3141400E-001	-1.7848406E+000
2	0	0	1	7.660787830886693E+002	-1.1750885E+000	-1.1782006E+000	-1.077539950522901E+002	-1.3989625E+000	37	6.0193110E-001	1.2695582E-001	-1.7801317E+000
2	0	0	1	7.664121830802469E+002	-1.1717540E+000	-1.1757941E+000	-1.041956786298786E+002	-1.4342088E+000	37	6.0051286E-001	1.2251267E-001	-1.7763070E+000
2	0	0	1	7.667455830718245E+002	-1.1684204E+000	-1.1698387E+000	-1.007050682061722E+002	-1.4682852E+000	37	5.9906018E-001	1.1780868E-001	-1.7688988E+000
2	0	0	1	7.670789830634021E+002	-1.1650863E+000	-1.1660752E+000	-9.725638784506077E+001	-1.5012084E+000	37	5.9734428E-001	1.1340827E-001	-1.7634195E+000
2	0	0	1	7.674123830549797E+002	-1.1617522E+000	-1.1623118E+000	-9.369753304762531E+001	-1.5329587E+000	37	5.9581703E-001	1.0890575E-001	-1.7581289E+000
2	0	0	1	7.677456830465599E+002	-1.1584196E+000	-1.1590942E+000	-9.029443607699272E+001	-1.5635433E+000	37	5.9381753E-001	1.0465976E-001	-1.7529118E+000
2	0	0	1	7.680789830381400E+002	-1.1550863E+000	-1.1562594E+000	-8.692904622458070E+001	-1.5929981E+000	37	5.9228289E-001	1.0051253E-001	-1.7485423E+000
2	0	0	1	7.684123830297176E+002	-1.1517524E+000	-1.1537204E+000	-8.348096717172621E+001	-1.6213268E+000	37	5.9046453E-001	9.6313693E-002	-1.7441850E+000
2	0	0	1	7.687457830212952E+002	-1.1484184E+000	-1.1486146E+000	-8.020058307239947E+001	-1.6485349E+000	37	5.8826965E-001	9.2119567E-002	-1.7368844E+000
2	0	0	1	7.690791830128728E+002	-1.1450843E+000	-1.1440790E+000	-7.683889317759690E+001	-1.6746354E+000	37	5.8654380E-001	8.7909758E-002	-1.7306228E+000
2	0	0	1	7.694125830044504E+002	-1.1417501E+000	-1.1416980E+000	-7.348368380725310E+001	-1.6996185E+000	37	5.8511668E-001	8.3896175E-002	-1.7268147E+000
2	0	0	1	7.697459829960280E+002	-1.1384163E+000	-1.1404750E+000	-7.032928255913157E+001	-1.7235156E+000	37	5.8292204E-001	8.0208793E-002	-1.7233970E+000
2	0	0	1	7.700792829876082E+002	-1.1350833E+000	-1.1324571E+000	-6.707054122951489E+001	-1.7463400E+000	37	5.8123124E-001	7.5954512E-002	-1.7136884E+000
2	0	0	1	7.704126829791858E+002	-1.1317494E+000	-1.1323612E+000	-6.394163590044917E+001	-1.7681061E+000	37	5.7917315E-001	7.2405025E-002	-1.7115343E+000
2	0	0	1	7.707459829707659E+002	-1.1284164E+000	-1.1286358E+000	-6.081111994024133E+001	-1.7888227E+000	37	5.7712585E-001	6.8633609E-002	-1.7057617E+000
2	0	0	1	7.710793829623435E+002	-1.1250823E+000	-1.1256599E+000	-5.778418000709883E+001	-1.8085204E+000	37	5.7549220E-001	6.5045334E-002	-1.7011521E+000
2	0	0	1	7.714127829539211E+002	-1.1217484E+000	-1.1219205E+000	-5.476832672837787E+001	-1.8272111E+000	37	5.7327610E-001	6.1445706E-002	-1.6951966E+000
2	0	0	1	7.717461829454987E+002	-1.1184142E+000	-1.1193506E+000	-5.181338994196676E+001	-1.8449041E+000	37	5.7132900E-001	5.7997346E-002	-1.6906796E+000
2	0	0	1	7.720795829370763E+002	-1.1150804E+000	-1.1151816E+000	-4.887772293864793E+001	-1.8616174E+000	37	5.6939858E-001	5.4507535E-002	-1.6845801E+000
2	0	0	1	7.724128829286565E+002	-1.1117476E+000	-1.1123444E+000	-4.606555184961643E+001	-1.8773665E+000	37	5.6730199E-001	5.1240757E-002	-1.6796464E+000
2	0	0	1	7.727628829198147E+002	-1.1082472E+000	-1.1079378E+000	-4.313061026040805E+001	-1.8928910E+000	37	5.6506717E-001	4.7786035E-002	-1.6730050E+000
2	0	0	1	7.731129829109705E+002	-1.1047463E+000	-1.1054772E+000	-4.025720352140570E+001	-1.9074470E+000	38	5.6272066E-001	4.4503421E-002	-1.6681979E+000
2	0	0	1	7.734463829025481E+002	-1.1014123E+000	-1.1014179E+000	-3.763621872843086E+001	-1.9203641E+000	38	5.6061757E-001	4.1453205E-002	-1.6620355E+000
2	0	0	1	7.737797828941257E+002	-1.0980784E+000	-1.0974777E+000	-3.505376044953325E+001	-1.9324149E+000	38	5.5818385E-001	3.8470719E-002	-1.6556616E+000
2	0	0	1	7.741130828857058E+002	-1.0947455E+000	-1.0945754E+000	-3.253098761945517E+001	-1.9436117E+000	38	5.5606735E-001	3.5607617E-002	-1.6506428E+000
2	0	0	1	7.744463828772859E+002	-1.0914122E+000	-1.0912548E+000	-3.009641848868782E+001	-1.9539820E+000	38	5.5421066E-001	3.2842863E-002	-1.6454655E+000
2	0	0	1	7.747797828688635E+002	-1.0880784E+000	-1.0894140E+000	-2.778530103099173E+001	-1.9635664E+000	38	5.5188113E-001	3.0269695E-002	-1.6412952E+000
2	0	0	1	7.751131828604412E+002	-1.0847441E+000	-1.0861664E+000	-2.543982239598427E+001	-1.9723752E+000	38	5.4987192E-001	2.7631881E-002	-1.6360383E+000
2	0	0	1	7.754465828520188E+002	-1.0814104E+000	-1.0814364E+000	-2.319533231306104E+001	-1.9804183E+000	38	5.4662573E-001	2.5084276E-002	-1.6280621E+000
2	0	0	1	7.757799828435964E+002	-1.0780762E+000	-1.0766795E+000	-2.104405480779781E+001	-1.9877307E+000	38	5.4449904E-001	2.2657702E-002	-1.6211785E+000
2	0	0	1	7.761133828351740E+002	-1.0747423E+000	-1.0727427E+000	-1.897095729254903E+001	-1.9943398E+000	38	5.4192579E-001	2.0350955E-002	-1.6146685E+000
2	0	0	1	7.764466828267541E+002	-1.0714092E+000	-1.0713065E+000	-1.694044169812224E+001	-2.0002637E+000	38	5.3903139E-001	1.8148405E-002	-1.6103379E+000
2	0	0	1	7.767799828183342E+002	-1.0680761E+000	-1.0682890E+000	-1.491566873473579E+001	-2.0055113E+000	38	5.3660077E-001	1.5934246E-002	-1.6048899E+000
2	0	0	1	7.771133828099119E+002	-1.0647424E+000	-1.0640502E+000	-1.295459618321280E+001	-2.0100954E+000	38	5.3357381E-001	1.3784341E-002	-1.5976241E+000
2	0	0	1	7.774467828014895E+002	-1.0614082E+000	-1.0639474E+000	-1.111557399645831E+001	-2.0140457E+000	38	5.3020459E-001	1.1826387E-002	-1.5941520E+000
2	0	0	1	7.777801827930671E+002	-1.0580744E+000	-1.0566546E+000	-9.362996070236868E+000	-2.0174000E+000	38	5.2687389E-001	9.8934527E-003	-1.5835285E+000
2	0	0	1	7.781135827846447E+002	-1.0547401E+000	-1.0534519E+000	-7.744222147593598E+000	-2.0201967E+000	38	5.2359742E-001	8.1581660E-003	-1.5770493E+000
2	0	0	1	7.784469827762223E+002	-1.0514063E+000	-1.0532571E+000	-6.218292287055753E+000	-2.0224688E+000	38	5.1942021E-001	6.5494603E-003	-1.5726774E+000
2	0	0	1	7.787968827673831E+002	-1.0479075E+000	-1.0486141E+000	-4.644232443211237E+000	-2.0242991E+000	38	5.1491356E-001	4.8700077E-003	-1.5635277E+000
2	0	0	1	7.791469827585388E+002	-1.0444061E+000	-1.0426416E+000	-3.071428245904816E+000	-2.0256052E+000	39	5.0933373E-001	3.2023990E-003	-1.5519754E+000
2	0	0	1	7.794803827501164E+002	-1.0410724E+000	-1.0405818E+000	-1.460756581381535E+000	-2.0263047E+000	39	5.0156814E-001	1.5200367E-003	-1.5421500E+000
2	0	0	1	7.798137827416940E+002	-1.0377381E+000	-1.0378848E+000	2.931718565327543E-001	-2.0264421E+000	39	4.9101901E-001	-3.0427863E-004	-1.5289038E+000
2	1	0	1	7.801471827332716E+002	-1.0344044E+000	-1.0353413E+000	2.264239611726431E+000	-2.0259562E+000	39	4.7574565E-001	-2.3442607E-003	-1.5110869E+000
2	1	0	1	7.804804827248518E+002	-1.0310713E+000	-1.0296329E+000	4.508822288316821E+000	-2.0247662E+000	39	4.5491931E-001	-4.6424321E-003	-1.4845523E+000
2	1	0	1	7.808137827164319E+002	-1.0277382E+000	-1.0297807E+000	7.070173062800336E+000	-2.0227723E+000	39	4.2685121E-001	-7.2807283E-003	-1.4566319E+000
2	1	0	1	7.811471827080095E+002	-1.0244043E+000	-1.0244308E+000	9.820496859331399E+000	-2.0198801E+000	39	3.9319658E-001	-1.0060419E-002	-1.4176273E+000
2	1	0	1	7.814805826995871E+002	-1.0210701E+000	-1.0238897E+000	1.233402998057355E+001	-2.0161119E+000	38	3.5926002E-001	-1.2628686E-002	-1.3831496E+000
2	1	0	1	7.818139826911647E+002	-1.0177366E+000	-1.0165474E+000	1.403699077716411E+001	-2.0116503E+000	38	3.3165091E-001	-1.4269267E-002	-1.3481984E+000
2	1	0	1	7.821473826827423E+002	-1.0144023E+000	-1.0141692E+000	1.422245194950034E+001	-2.0068834E+000	38	3.1128600E-001	-1.4423973E-002	-1.3254552E+000
2	1	0	1	7.824807826743199E+002	-1.0110683E+000	-1.0112981E+000	1.273266884133505E+001	-2.0023479E+000	38	2.9990670E-001	-1.2876524E-002	-1.3112048E+000
2	1	0	1	7.828140826659001E+002	-1.0077354E+000	-1.0089990E+000	1.063361349558963E+001	-1.9984260E+000	38	2.9461017E-001	-1.0729305E-002	-1.3036091E+000
2	1	0	1	7.831473826574802E+002	-1.0044023E+000	-1.0038499E+000	9.056207341911318E+000	-1.9951149E+000	38	2.9121241E-001	-9.0910727E-003	-1.2950623E+000
2	1	0	1	7.834807826490578E+002	-1.0010685E+000	-1.0022264E+000	8.064825224646114E+000	-1.9922273E+000	38	2.8822777E-001	-8.0827801E-003	-1.2904541E+000
2	1	0	1	7.838141826406354E+002	-9.9773413E-001	-9.9895895E-001	7.498048092475472E+000	-1.9895915E+000	38	2.8569695E-001	-7.4902424E-003	-1.2846559E+000
2	1	0	1	7.841475826322130E+002	-9.9440044E-001	-9.9486488E-001	7.220727543291304E+000	-1.9870924E+000	38	2.8260073E-001	-7.1836482E-003	-1.2774656E+000
2	1	0	1	7.844809826237906E+002	-9.9106610E-001	-9.9190116E-001	7.123036023418571E+000	-1.9846551E+000	38	2.7932769E-001	-7.0653479E-003	-1.2712288E+000
2	1	0	1	7.848143826153682E+002	-9.8773229E-001	-9.9003303E-001	7.167682090797527E+000	-1.9822246E+000	38	2.7721792E-001	-7.0962422E-003	-1.2672510E+000
2	1	0	1	7.851476826069484E+002	-9.8439944E-001	-9.8532099E-001	7.325664284896007E+000	-1.9797593E+000	38	2.7407759E-001	-7.2181309E-003	-1.2593986E+000
2	1	0	1	7.854809825985285E+002	-9.8106629E-001	-9.8241216E-001	7.593645305717132E+000	-1.9772218E+000	38	2.6982525E-001	-7.4600894E-003	-1.2522374E+000
2	1	0	1	7.858143825901061E+002	-9.7773230E-001	-9.7792542E-001	7.932095339937575E+000	-1.9745789E+000	38	2.6599616E-001	-7.7569978E-003	-1.2439215E+000
2	1	0	1	7.861477825816837E+002	-9.7439814E-001	-9.7418523E-001	8.379246320347534E+000	-1.9718040E+000	38	2.6194668E-001	-8.1629381E-003	-1.2361319E+000
2	1	0	1	7.864811825732613E+002	-9.7106433E-001	-9.7354805E-001	8.889148554226608E+000	-1.9688708E+000	38	2.5759941E-001	-8.6540133E-003	-1.2311475E+000
2	1	0	1	7.868145825648389E+002	-9.6773005E-001	-9.6811014E-001	9.443929001313506E+000	-1.9657599E+000	38	2.5113043E-001	-9.1427639E-003	-1.2192405E+000
2	1	0	1	7.871479825564165E+002	-9.6439630E-001	-9.6721160E-001	1.002934092998015E+001	-1.9624568E+000	38	2.4162024E-001	-9.7004948E-003	-1.2088318E+000
2	1	0	1	7.874812825479967E+002	-9.6106333E-001	-9.6175838E-001	1.060914288888017E+001	-1.9589598E+000	38	2.1212392E-001	-1.0203432E-002	-1.1738822E+000
2	1	0	1	7.878145825395768E+002	-9.5773017E-001	-9.5672160E-001	1.117912186269874E+001	-1.9552715E+000	38	1.0489672E-001	-1.0695308E-002	-1.0616183E+000
2	1	0	1	7.881479825311544E+002	-9.5439619E-001	-9.5181853E-001	1.188602469064627E+001	-1.9513677E+000	38	-1.2581496E-001	-1.1313339E-002	-8.2600355E-001
2	1	0	1	7.884480825235732E+002	-9.5139521E-001	-9.5136839E-001	1.264962629248430E+001	-1.9476421E+000	38	-6.7444313E-001	-1.2034454E-002	-2.7692527E-001
2	1	0	0	7.885709825204685E+002	-9.4989502E-001	-9.4314390E-001	1.359128872040779E+001	-1.9460615E+000	38	-7.8632975E-001	-1.2818541E-002	-1.5681416E-001