mode	ox/red	error	control changes	time/s	control/V	Ewe/V	<I>/mA	(Q-Qo)/C	I Range	<Ece>/V	P/W	Ewe-Ece/V	
2	0	0	0	1.234671993133816E+002	-1.2246174E+000	-1.2251302E+000	-2.012616970585850E+002	-7.1634389E-003	37	6.4603519E-001	2.4657178E-001	-1.8711654E+000
2	0	0	1	1.236505993087485E+002	-1.2227842E+000	-1.2228767E+000	-1.983142642301291E+002	-4.3565232E-002	37	6.4505303E-001	2.4251388E-001	-1.8679297E+000
2	0	0	1	1.239839993003261E+002	-1.2194498E+000	-1.2199361E+000	-1.939869396857796E+002	-1.0886730E-001	37	6.4345723E-001	2.3665167E-001	-1.8633933E+000
2	0	0	1	1.243173992919037E+002	-1.2161161E+000	-1.2176555E+000	-1.898250363675634E+002	-1.7275788E-001	37	6.4198989E-001	2.3114151E-001	-1.8596454E+000
2	0	0	1	1.246506992834838E+002	-1.2127830E+000	-1.2127483E+000	-1.856783589806482E+002	-2.3524573E-001	37	6.4024538E-001	2.2518112E-001	-1.8529937E+000
2	0	0	1	1.249839992750640E+002	-1.2094500E+000	-1.2106464E+000	-1.815136860559443E+002	-2.9634610E-001	37	6.3903165E-001	2.1974888E-001	-1.8496780E+000
2	0	0	1	1.253173992666416E+002	-1.2061163E+000	-1.2078850E+000	-1.774644969746023E+002	-3.5609874E-001	37	6.3726264E-001	2.1435671E-001	-1.8451476E+000
2	0	0	1	1.256507992582192E+002	-1.2027819E+000	-1.2044367E+000	-1.734284812539856E+002	-4.1450095E-001	37	6.3607371E-001	2.0888361E-001	-1.8405104E+000
2	0	0	1	1.259841992497968E+002	-1.1994482E+000	-1.2005767E+000	-1.694238125077188E+002	-4.7156629E-001	37	6.3440311E-001	2.0340627E-001	-1.8349798E+000
2	0	0	1	1.263175992413744E+002	-1.1961141E+000	-1.1973312E+000	-1.653677271533620E+002	-5.2728206E-001	37	6.3283080E-001	1.9799994E-001	-1.8301620E+000
2	0	0	1	1.266509992329520E+002	-1.1927800E+000	-1.1928955E+000	-1.612874797669683E+002	-5.8164066E-001	37	6.3120919E-001	1.9239911E-001	-1.8241048E+000
2	0	0	1	1.269842992245322E+002	-1.1894473E+000	-1.1901973E+000	-1.573365228888420E+002	-6.3464630E-001	37	6.2969840E-001	1.8726151E-001	-1.8198957E+000
2	0	0	1	1.273175992161123E+002	-1.1861140E+000	-1.1877806E+000	-1.534916958705135E+002	-6.8635237E-001	37	6.2821537E-001	1.8231446E-001	-1.8159959E+000
2	0	0	1	1.276509992076899E+002	-1.1827801E+000	-1.1851546E+000	-1.495644372267446E+002	-7.3678142E-001	37	6.2661332E-001	1.7725697E-001	-1.8117678E+000
2	0	0	1	1.279843991992675E+002	-1.1794459E+000	-1.1818042E+000	-1.457039966774632E+002	-7.8591186E-001	37	6.2512076E-001	1.7219359E-001	-1.8069249E+000
2	0	0	1	1.283177991908451E+002	-1.1761121E+000	-1.1780366E+000	-1.418866464824528E+002	-8.3375978E-001	37	6.2344921E-001	1.6714765E-001	-1.8014858E+000
2	0	0	1	1.286511991824227E+002	-1.1727780E+000	-1.1745745E+000	-1.382227780848070E+002	-8.8036340E-001	37	6.2195295E-001	1.6235295E-001	-1.7965274E+000
2	0	0	1	1.289845991740003E+002	-1.1694441E+000	-1.1703365E+000	-1.343885748328739E+002	-9.2571491E-001	37	6.2045664E-001	1.5727985E-001	-1.7907932E+000
2	0	0	1	1.293178991655805E+002	-1.1661110E+000	-1.1668663E+000	-1.305599857562829E+002	-9.6977526E-001	37	6.1861348E-001	1.5234604E-001	-1.7854798E+000
2	0	0	1	1.296511991571606E+002	-1.1627779E+000	-1.1640012E+000	-1.268433250608791E+002	-1.0125755E+000	37	6.1735874E-001	1.4764579E-001	-1.7813599E+000
2	0	0	1	1.299845991487382E+002	-1.1594442E+000	-1.1603062E+000	-1.231542777701698E+002	-1.0541589E+000	37	6.1570466E-001	1.4289667E-001	-1.7760109E+000
2	0	0	1	1.303179991403158E+002	-1.1561100E+000	-1.1572664E+000	-1.195321179253674E+002	-1.0945252E+000	37	6.1376607E-001	1.3833050E-001	-1.7710325E+000
2	0	0	1	1.306513991318934E+002	-1.1527762E+000	-1.1528983E+000	-1.158220365043444E+002	-1.1336691E+000	37	6.1241287E-001	1.3353103E-001	-1.7653112E+000
2	0	0	1	1.309847991234710E+002	-1.1494420E+000	-1.1499945E+000	-1.121517288790885E+002	-1.1715806E+000	37	6.1069214E-001	1.2897387E-001	-1.7606866E+000
2	0	0	1	1.313181991150486E+002	-1.1461080E+000	-1.1471382E+000	-1.086463332121962E+002	-1.2082932E+000	37	6.0915059E-001	1.2463237E-001	-1.7562888E+000
2	0	0	1	1.316514991066288E+002	-1.1427753E+000	-1.1431149E+000	-1.051101778888384E+002	-1.2438238E+000	37	6.0711151E-001	1.2015301E-001	-1.7502265E+000
2	0	0	1	1.319848990982064E+002	-1.1394411E+000	-1.1407646E+000	-1.015647063286912E+002	-1.2781854E+000	37	6.0579091E-001	1.1586142E-001	-1.7465556E+000
2	0	0	1	1.323181990897865E+002	-1.1361083E+000	-1.1351889E+000	-9.802589672182376E+001	-1.3113561E+000	37	6.0404551E-001	1.1127792E-001	-1.7392344E+000
2	0	0	1	1.326515990813641E+002	-1.1327740E+000	-1.1331779E+000	-9.455993351207826E+001	-1.3433681E+000	37	6.0217184E-001	1.0715322E-001	-1.7353497E+000
2	0	0	1	1.329849990729417E+002	-1.1294401E+000	-1.1307844E+000	-9.112590107911802E+001	-1.3742309E+000	37	6.0062975E-001	1.0304375E-001	-1.7314141E+000
2	0	0	1	1.333183990645193E+002	-1.1261059E+000	-1.1262177E+000	-8.769498256042289E+001	-1.4039505E+000	37	5.9904289E-001	9.8763645E-002	-1.7252606E+000
2	0	0	1	1.336517990560969E+002	-1.1227720E+000	-1.1227303E+000	-8.435932029899050E+001	-1.4325428E+000	37	5.9696341E-001	9.4712764E-002	-1.7196937E+000
2	0	0	1	1.339850990476771E+002	-1.1194392E+000	-1.1200415E+000	-8.101102690013613E+001	-1.4600083E+000	37	5.9531826E-001	9.0735711E-002	-1.7153597E+000
2	0	0	1	1.343183990392572E+002	-1.1161059E+000	-1.1155716E+000	-7.781021742609835E+001	-1.4863837E+000	37	5.9385341E-001	8.6802870E-002	-1.7094250E+000
2	0	0	1	1.346517990308348E+002	-1.1127721E+000	-1.1138158E+000	-7.452683214756524E+001	-1.5116870E+000	37	5.9211773E-001	8.3009161E-002	-1.7059336E+000
2	0	0	1	1.349851990224124E+002	-1.1094379E+000	-1.1106944E+000	-7.129575248595859E+001	-1.5359038E+000	37	5.9017086E-001	7.9187796E-002	-1.7008653E+000
2	0	0	1	1.353185990139900E+002	-1.1061040E+000	-1.1064509E+000	-6.808940179271474E+001	-1.5590467E+000	37	5.8848780E-001	7.5337581E-002	-1.6949387E+000
2	0	0	1	1.356519990055676E+002	-1.1027702E+000	-1.1015041E+000	-6.495596539390226E+001	-1.5811349E+000	37	5.8642370E-001	7.1549259E-002	-1.6879277E+000
2	0	0	1	1.359853989971452E+002	-1.0994360E+000	-1.0997086E+000	-6.189214713236349E+001	-1.6021912E+000	37	5.8482009E-001	6.8063326E-002	-1.6845286E+000
2	0	0	1	1.363186989887254E+002	-1.0961032E+000	-1.0962924E+000	-5.880294208686405E+001	-1.6222150E+000	37	5.8301532E-001	6.4465217E-002	-1.6793077E+000
2	0	0	1	1.366520989803030E+002	-1.0927690E+000	-1.0934418E+000	-5.583263467215784E+001	-1.6412342E+000	37	5.8079863E-001	6.1049741E-002	-1.6742405E+000
2	0	0	1	1.369853989718831E+002	-1.0894362E+000	-1.0901637E+000	-5.287293539782598E+001	-1.6592613E+000	37	5.7915622E-001	5.7640154E-002	-1.6693199E+000
2	0	0	1	1.373187989634607E+002	-1.0861022E+000	-1.0852545E+000	-4.992726183979710E+001	-1.6763084E+000	37	5.7691157E-001	5.4183789E-002	-1.6621661E+000
2	0	0	1	1.376521989550383E+002	-1.0827681E+000	-1.0833892E+000	-4.699440322316354E+001	-1.6923764E+000	37	5.7515335E-001	5.0913226E-002	-1.6585425E+000
2	0	0	1	1.380022989461941E+002	-1.0792670E+000	-1.0793265E+000	-4.404260932482094E+001	-1.7081947E+000	37	5.7316709E-001	4.7536355E-002	-1.6524936E+000
2	0	0	1	1.383521989373548E+002	-1.0757680E+000	-1.0776089E+000	-4.103172028359393E+001	-1.7230077E+000	38	5.7063913E-001	4.4216149E-002	-1.6482481E+000
2	0	0	1	1.386855989289325E+002	-1.0724342E+000	-1.0729041E+000	-3.818410096101232E+001	-1.7361240E+000	38	5.6865942E-001	4.0967878E-002	-1.6415635E+000
2	0	0	1	1.390189989205101E+002	-1.0690999E+000	-1.0681990E+000	-3.537701923959833E+001	-1.7482971E+000	38	5.6633508E-001	3.7789699E-002	-1.6345341E+000
2	0	0	1	1.393523989120877E+002	-1.0657660E+000	-1.0666157E+000	-3.254998351122606E+001	-1.7595310E+000	38	5.6379396E-001	3.4718323E-002	-1.6304097E+000
2	0	0	1	1.396857989036653E+002	-1.0624319E+000	-1.0621380E+000	-2.977539727181232E+001	-1.7698328E+000	38	5.6160599E-001	3.1625580E-002	-1.6237440E+000
2	0	0	1	1.400191988952429E+002	-1.0590980E+000	-1.0612552E+000	-2.702187822127502E+001	-1.7792116E+000	38	5.5906266E-001	2.8677110E-002	-1.6203179E+000
2	0	0	1	1.403524988868230E+002	-1.0557652E+000	-1.0589440E+000	-2.427459149857183E+001	-1.7876704E+000	38	5.5615622E-001	2.5705433E-002	-1.6151001E+000
2	0	0	1	1.406858988784006E+002	-1.0524310E+000	-1.0521381E+000	-2.151112702408471E+001	-1.7952141E+000	38	5.5307984E-001	2.2632675E-002	-1.6052179E+000
2	0	0	1	1.410191988699808E+002	-1.0490981E+000	-1.0503339E+000	-1.874376658281831E+001	-1.8018345E+000	38	5.4981589E-001	1.9687213E-002	-1.6001498E+000
2	0	0	1	1.413525988615584E+002	-1.0457640E+000	-1.0463140E+000	-1.593276271916218E+001	-1.8075255E+000	38	5.4622549E-001	1.6670672E-002	-1.5925395E+000
2	0	0	1	1.416859988531360E+002	-1.0424302E+000	-1.0423057E+000	-1.307024221233226E+001	-1.8122703E+000	38	5.4187691E-001	1.3623188E-002	-1.5841826E+000
2	0	0	1	1.420193988447136E+002	-1.0390961E+000	-1.0386232E+000	-1.011063096328324E+001	-1.8160439E+000	38	5.3696293E-001	1.0501136E-002	-1.5755861E+000
2	0	0	1	1.423527988362912E+002	-1.0357620E+000	-1.0360789E+000	-7.074618595490449E+000	-1.8188174E+000	38	5.3085434E-001	7.3298635E-003	-1.5669333E+000
2	0	0	1	1.427026988274520E+002	-1.0322630E+000	-1.0328094E+000	-3.802509761306759E+000	-1.8205967E+000	38	5.2152836E-001	3.9272676E-003	-1.5543377E+000
2	0	0	1	1.430527988186077E+002	-1.0287617E+000	-1.0294887E+000	-3.786715652673696E-001	-1.8212553E+000	39	5.0776368E-001	3.8983810E-004	-1.5372524E+000
2	1	0	1	1.433861988101853E+002	-1.0254279E+000	-1.0252553E+000	2.776041218732686E+000	-1.8207635E+000	39	4.8758006E-001	-2.8461511E-003	-1.5128354E+000
2	1	0	1	1.437195988017629E+002	-1.0220942E+000	-1.0221695E+000	5.814985142332645E+000	-1.8192407E+000	39	4.5979005E-001	-5.9439004E-003	-1.4819596E+000
2	1	0	1	1.440529987933405E+002	-1.0187600E+000	-1.0202088E+000	8.799841976103259E+000	-1.8167145E+000	39	4.2821181E-001	-8.9776767E-003	-1.4484206E+000
2	1	0	1	1.444195987840794E+002	-1.0150943E+000	-1.0168869E+000	1.190523123153517E+001	-1.8128067E+000	38	3.9254048E-001	-1.2106274E-002	-1.4094274E+000
2	1	0	1	1.447529987756570E+002	-1.0117599E+000	-1.0119489E+000	1.442330596499596E+001	-1.8083322E+000	38	3.6196768E-001	-1.4595649E-002	-1.3739166E+000
2	1	0	1	1.450863987672346E+002	-1.0084261E+000	-1.0087914E+000	1.673243767576491E+001	-1.8030533E+000	38	3.3855060E-001	-1.6879540E-002	-1.3473420E+000
2	1	0	1	1.454197987588122E+002	-1.0050920E+000	-1.0055248E+000	1.851440379436826E+001	-1.7970932E+000	38	3.2078475E-001	-1.8616691E-002	-1.3263094E+000
2	1	0	1	1.457531987503899E+002	-1.0017581E+000	-1.0024619E+000	2.014185714721467E+001	-1.7905784E+000	38	2.9706779E-001	-2.0191444E-002	-1.2995297E+000
2	1	0	1	1.460864987419700E+002	-9.9842507E-001	-9.9903393E-001	2.222317236538669E+001	-1.7834359E+000	38	2.7053946E-001	-2.2201704E-002	-1.2695735E+000
2	1	0	1	1.464197987335501E+002	-9.9509186E-001	-9.9558061E-001	2.423499090235518E+001	-1.7756125E+000	38	2.4363680E-001	-2.4127888E-002	-1.2392174E+000
2	1	0	1	1.467531987251277E+002	-9.9175829E-001	-9.9114573E-001	2.612790938967242E+001	-1.7671380E+000	38	1.8052812E-001	-2.5896566E-002	-1.1716739E+000
2	1	0	1	1.470865987167053E+002	-9.8842400E-001	-9.8909771E-001	2.672689413643357E+001	-1.7582494E+000	38	-4.0272743E-001	-2.6435509E-002	-5.8637029E-001
2	1	0	1	1.474199987082829E+002	-9.8509002E-001	-9.8578191E-001	2.847619445714634E+001	-1.7489810E+000	38	-1.0020384E+000	-2.8071318E-002	1.6256452E-002
2	1	0	1	1.477533986998606E+002	-9.8175591E-001	-9.8266721E-001	3.066458194799941E+001	-1.7390428E+000	38	-1.1181781E+000	-3.0133080E-002	1.3551092E-001
2	1	0	1	1.480867986914382E+002	-9.7842205E-001	-9.8074526E-001	3.277147024200985E+001	-1.7283874E+000	38	-1.1612520E+000	-3.2140464E-002	1.8050677E-001
2	1	0	1	1.484200986830183E+002	-9.7508889E-001	-9.7631687E-001	3.481269889345356E+001	-1.7170444E+000	38	-1.1553237E+000	-3.3988226E-002	1.7900687E-001
2	1	0	1	1.487533986745984E+002	-9.7175586E-001	-9.7197628E-001	3.662182120740215E+001	-1.7050591E+000	38	-1.1435566E+000	-3.5595540E-002	1.7158031E-001
2	1	0	1	1.490867986661760E+002	-9.6842217E-001	-9.6809691E-001	3.802736038441174E+001	-1.6925364E+000	38	-1.1373509E+000	-3.6814172E-002	1.6925400E-001
2	1	0	1	1.494201986577536E+002	-9.6508801E-001	-9.6509224E-001	3.920645369211286E+001	-1.6795872E+000	38	-1.1341834E+000	-3.7837844E-002	1.6909117E-001
2	1	0	1	1.497535986493313E+002	-9.6175408E-001	-9.6241134E-001	4.027145439323868E+001	-1.6662658E+000	38	-1.1335466E+000	-3.8757704E-002	1.7113525E-001
2	1	0	1	1.500869986409089E+002	-9.5841992E-001	-9.5886505E-001	4.124278704176271E+001	-1.6526070E+000	38	-1.1339760E+000	-3.9546266E-002	1.7511094E-001
2	1	0	1	1.504203986324865E+002	-9.5508605E-001	-9.5530748E-001	4.222703912044014E+001	-1.6386225E+000	38	-1.1351023E+000	-4.0339805E-002	1.7979479E-001
2	1	0	1	1.507536986240666E+002	-9.5175314E-001	-9.5180964E-001	4.327643958045746E+001	-1.6243029E+000	38	-1.1369778E+000	-4.1190933E-002	1.8516815E-001
2	1	0	0	1.509123986200575E+002	-9.4991910E-001	-9.4783956E-001	4.411485024385672E+001	-1.6173964E+000	38	-1.1383741E+000	-4.1813802E-002	1.9053453E-001
2	0	0	0	2.408737963474414E+002	-1.2206169E+000	-1.2210810E+000	-2.008752445894129E+002	-7.1520912E-003	37	6.3958937E-001	2.4528494E-001	-1.8606703E+000
2	0	0	1	2.410571963428083E+002	-1.2187837E+000	-1.2193463E+000	-1.979515971234619E+002	-4.3490130E-002	37	6.3807362E-001	2.4137154E-001	-1.8574200E+000
2	0	0	1	2.413905963343859E+002	-1.2154496E+000	-1.2164036E+000	-1.933886410076211E+002	-1.0863943E-001	37	6.3635480E-001	2.3523864E-001	-1.8527584E+000
2	0	0	1	2.417239963259635E+002	-1.2121156E+000	-1.2128015E+000	-1.890093899109334E+002	-1.7230007E-001	37	6.3481677E-001	2.2923087E-001	-1.8476182E+000
2	0	0	1	2.420572963175437E+002	-1.2087827E+000	-1.2089473E+000	-1.846710820832165E+002	-2.3448209E-001	37	6.3309216E-001	2.2325760E-001	-1.8420395E+000
2	0	0	1	2.423905963091238E+002	-1.2054495E+000	-1.2058079E+000	-1.804513390705274E+002	-2.9524562E-001	37	6.3158292E-001	2.1758966E-001	-1.8373909E+000
2	0	0	1	2.427239963007014E+002	-1.2021158E+000	-1.2023983E+000	-1.763463182393261E+002	-3.5463774E-001	37	6.3014257E-001	2.1203852E-001	-1.8325409E+000
2	0	0	1	2.430573962922790E+002	-1.1987815E+000	-1.1993783E+000	-1.721564210881609E+002	-4.1264662E-001	37	6.2872535E-001	2.0648067E-001	-1.8281035E+000
2	0	0	1	2.433907962838566E+002	-1.1954478E+000	-1.1961488E+000	-1.679385262884171E+002	-4.6925712E-001	37	6.2710422E-001	2.0087945E-001	-1.8232529E+000
2	0	0	1	2.437241962754342E+002	-1.1921135E+000	-1.1930679E+000	-1.638310798103466E+002	-5.2447844E-001	37	6.2571198E-001	1.9546160E-001	-1.8187799E+000
2	0	0	1	2.440575962670118E+002	-1.1887796E+000	-1.1887381E+000	-1.598385333483966E+002	-5.7835466E-001	37	6.2420249E-001	1.9000615E-001	-1.8129406E+000
2	0	0	1	2.443908962585920E+002	-1.1854469E+000	-1.1856908E+000	-1.557437833416993E+002	-6.3086206E-001	37	6.2264258E-001	1.8466397E-001	-1.8083334E+000
2	0	0	1	2.447241962501721E+002	-1.1821135E+000	-1.1823250E+000	-1.516789029878501E+002	-6.8201268E-001	37	6.2113482E-001	1.7933376E-001	-1.8034599E+000
2	0	0	1	2.450575962417497E+002	-1.1787797E+000	-1.1788040E+000	-1.476688703427237E+002	-7.3183274E-001	37	6.1961412E-001	1.7407267E-001	-1.7984182E+000
2	0	0	1	2.453909962333273E+002	-1.1754454E+000	-1.1758468E+000	-1.436348416659004E+002	-7.8031141E-001	37	6.1800128E-001	1.6889258E-001	-1.7938480E+000
2	0	0	1	2.457243962249049E+002	-1.1721117E+000	-1.1730952E+000	-1.395885758608646E+002	-8.2744193E-001	37	6.1639947E-001	1.6375069E-001	-1.7894948E+000
2	0	0	1	2.460577962164825E+002	-1.1687777E+000	-1.1688457E+000	-1.357150700688680E+002	-8.7325209E-001	37	6.1449760E-001	1.5862997E-001	-1.7833433E+000
2	0	0	1	2.463911962080601E+002	-1.1654435E+000	-1.1659095E+000	-1.317416800127630E+002	-9.1775489E-001	37	6.1326075E-001	1.5359887E-001	-1.7791703E+000
2	0	0	1	2.467244961996403E+002	-1.1621108E+000	-1.1626767E+000	-1.278445335332704E+002	-9.6093428E-001	37	6.1140370E-001	1.4864185E-001	-1.7740804E+000
2	0	0	1	2.470577961912204E+002	-1.1587774E+000	-1.1592588E+000	-1.238900265641819E+002	-1.0028028E+000	37	6.0994548E-001	1.4362061E-001	-1.7692044E+000
2	0	0	1	2.473911961827980E+002	-1.1554437E+000	-1.1542776E+000	-1.200890243807926E+002	-1.0433912E+000	37	6.0851508E-001	1.3861607E-001	-1.7627926E+000
2	0	0	1	2.477245961743756E+002	-1.1521097E+000	-1.1530284E+000	-1.161648512709344E+002	-1.0826938E+000	37	6.0629517E-001	1.3394137E-001	-1.7593236E+000
2	0	0	1	2.480579961659532E+002	-1.1487756E+000	-1.1479369E+000	-1.123069511000608E+002	-1.1206995E+000	37	6.0507160E-001	1.2892130E-001	-1.7530086E+000
2	0	0	1	2.483913961575308E+002	-1.1454414E+000	-1.1461239E+000	-1.085405775249719E+002	-1.1574370E+000	37	6.0330373E-001	1.2440095E-001	-1.7494276E+000
2	0	0	1	2.487247961491084E+002	-1.1421076E+000	-1.1421803E+000	-1.048374119879445E+002	-1.1929286E+000	37	6.0143751E-001	1.1974323E-001	-1.7436178E+000
2	0	0	1	2.490580961406886E+002	-1.1387748E+000	-1.1400340E+000	-1.011765826843812E+002	-1.2271821E+000	37	6.0036576E-001	1.1534474E-001	-1.7403997E+000
2	0	0	1	2.493914961322662E+002	-1.1354406E+000	-1.1357297E+000	-9.747051841446330E+001	-1.2602201E+000	37	5.9812284E-001	1.1070016E-001	-1.7338525E+000
2	0	0	1	2.497247961238463E+002	-1.1321077E+000	-1.1331931E+000	-9.405654337283113E+001	-1.2920592E+000	37	5.9656006E-001	1.0658423E-001	-1.7297533E+000
2	0	0	1	2.500581961154239E+002	-1.1287736E+000	-1.1292694E+000	-9.040793627381247E+001	-1.3227289E+000	37	5.9474844E-001	1.0209491E-001	-1.7240179E+000
2	0	0	1	2.503915961070015E+002	-1.1254396E+000	-1.1266760E+000	-8.686337741629904E+001	-1.3522018E+000	37	5.9304100E-001	9.7866878E-002	-1.7197170E+000
2	0	0	1	2.507249960985791E+002	-1.1221055E+000	-1.1218759E+000	-8.347425062137911E+001	-1.3805184E+000	37	5.9128994E-001	9.3647748E-002	-1.7131658E+000
2	0	0	1	2.510583960901567E+002	-1.1187714E+000	-1.1190064E+000	-7.994173507396158E+001	-1.4076838E+000	37	5.8943188E-001	8.9455314E-002	-1.7084383E+000
2	0	0	1	2.513917960817344E+002	-1.1154379E+000	-1.1150770E+000	-7.644522123010353E+001	-1.4336764E+000	37	5.8817428E-001	8.5242309E-002	-1.7032514E+000
2	0	0	1	2.517250960733145E+002	-1.1121045E+000	-1.1111641E+000	-7.300965602093697E+001	-1.4585050E+000	37	5.8606374E-001	8.1125706E-002	-1.6972278E+000
2	0	0	1	2.520583960648946E+002	-1.1087717E+000	-1.1101402E+000	-6.966116240104054E+001	-1.4822041E+000	37	5.8393222E-001	7.7333659E-002	-1.6940725E+000
2	0	0	1	2.523917960564722E+002	-1.1054376E+000	-1.1060764E+000	-6.578822463319341E+001	-1.5047138E+000	37	5.8164948E-001	7.2766803E-002	-1.6877258E+000
2	0	0	1	2.527251960480498E+002	-1.1021036E+000	-1.1022218E+000	-6.254054349305562E+001	-1.5260299E+000	37	5.7952654E-001	6.8933554E-002	-1.6817484E+000
2	0	0	1	2.530585960396274E+002	-1.0987697E+000	-1.1001500E+000	-5.935961861041699E+001	-1.5462751E+000	37	5.7801813E-001	6.5304480E-002	-1.6781681E+000
2	0	0	1	2.533919960312051E+002	-1.0954355E+000	-1.0951947E+000	-5.621099014176889E+001	-1.5654652E+000	37	5.7575405E-001	6.1561979E-002	-1.6709487E+000
2	0	0	1	2.537252960227852E+002	-1.0921028E+000	-1.0925264E+000	-5.309133545274692E+001	-1.5836033E+000	37	5.7349730E-001	5.8003686E-002	-1.6660237E+000
2	0	0	1	2.540586960143628E+002	-1.0887685E+000	-1.0890093E+000	-5.003569901508581E+001	-1.6007206E+000	37	5.7190442E-001	5.4489341E-002	-1.6609137E+000
2	0	0	1	2.543919960059429E+002	-1.0854357E+000	-1.0854406E+000	-4.699983504707859E+001	-1.6168200E+000	37	5.6988728E-001	5.1015530E-002	-1.6553279E+000
2	0	0	1	2.547420959970987E+002	-1.0819348E+000	-1.0832566E+000	-4.397132102754295E+001	-1.6326406E+000	37	5.6764865E-001	4.7632225E-002	-1.6509053E+000
2	0	0	1	2.550921959882544E+002	-1.0784335E+000	-1.0801504E+000	-4.090831763065874E+001	-1.6474428E+000	38	5.6551927E-001	4.4187136E-002	-1.6456697E+000
2	0	0	1	2.554254959798345E+002	-1.0751008E+000	-1.0758924E+000	-3.797297781902637E+001	-1.6605155E+000	38	5.6316417E-001	4.0854841E-002	-1.6390567E+000
2	0	0	1	2.557587959714147E+002	-1.0717674E+000	-1.0724335E+000	-3.506625214395854E+001	-1.6726151E+000	38	5.6090230E-001	3.7606221E-002	-1.6333358E+000
2	0	0	1	2.560921959629923E+002	-1.0684336E+000	-1.0697292E+000	-3.217540202512146E+001	-1.6837521E+000	38	5.5863571E-001	3.4418967E-002	-1.6283649E+000
2	0	0	1	2.564255959545699E+002	-1.0650997E+000	-1.0650053E+000	-2.930368487462817E+001	-1.6939261E+000	38	5.5588502E-001	3.1208580E-002	-1.6208904E+000
2	0	0	1	2.567589959461475E+002	-1.0617656E+000	-1.0615165E+000	-2.650708944893857E+001	-1.7031562E+000	38	5.5329400E-001	2.8137714E-002	-1.6148105E+000
2	0	0	1	2.570923959377251E+002	-1.0584316E+000	-1.0591446E+000	-2.373981624595436E+001	-1.7114588E+000	38	5.5035174E-001	2.5143899E-002	-1.6094964E+000
2	0	0	1	2.574257959293027E+002	-1.0550975E+000	-1.0575919E+000	-2.098560326421899E+001	-1.7188420E+000	38	5.4756582E-001	2.2194205E-002	-1.6051577E+000
2	0	0	1	2.577590959208828E+002	-1.0517646E+000	-1.0530972E+000	-1.819684378939584E+001	-1.7252972E+000	38	5.4430580E-001	1.9163046E-002	-1.5974030E+000
2	0	0	1	2.580924959124604E+002	-1.0484306E+000	-1.0476153E+000	-1.538036318745924E+001	-1.7308191E+000	38	5.4093802E-001	1.6112704E-002	-1.5885533E+000
2	0	0	1	2.584257959040406E+002	-1.0450977E+000	-1.0455353E+000	-1.257032308514586E+001	-1.7354016E+000	38	5.3652042E-001	1.3142717E-002	-1.5820558E+000
2	0	0	1	2.587591958956182E+002	-1.0417634E+000	-1.0416235E+000	-9.702661892854877E+000	-1.7390385E+000	38	5.3149062E-001	1.0106521E-002	-1.5731142E+000
2	0	0	1	2.590925958871958E+002	-1.0384295E+000	-1.0393456E+000	-6.781450743713673E+000	-1.7417089E+000	38	5.2553964E-001	7.0482711E-003	-1.5648853E+000
2	0	0	1	2.594426958783515E+002	-1.0349287E+000	-1.0355740E+000	-3.637012497458155E+000	-1.7434317E+000	38	5.1691210E-001	3.7663954E-003	-1.5524861E+000
2	0	0	1	2.597926958695098E+002	-1.0314286E+000	-1.0310235E+000	-3.340151099414905E-001	-1.7440749E+000	39	5.0415045E-001	3.4437742E-004	-1.5351739E+000
2	1	0	1	2.601259958610899E+002	-1.0280957E+000	-1.0309390E+000	2.865092497762822E+000	-1.7435746E+000	39	4.8488295E-001	-2.9537356E-003	-1.5158219E+000
2	1	0	1	2.604593958526675E+002	-1.0247616E+000	-1.0250124E+000	5.973506543928650E+000	-1.7420217E+000	39	4.5864627E-001	-6.1229183E-003	-1.4836587E+000
2	1	0	1	2.607927958442451E+002	-1.0214276E+000	-1.0215213E+000	8.973700483826445E+000	-1.7394421E+000	39	4.2791462E-001	-9.1668265E-003	-1.4494359E+000
2	1	0	1	2.611261958358227E+002	-1.0180936E+000	-1.0196260E+000	1.188169190086078E+001	-1.7358782E+000	38	3.9587912E-001	-1.2114882E-002	-1.4155052E+000
2	1	0	1	2.614595958274003E+002	-1.0147595E+000	-1.0153005E+000	1.480699728706415E+001	-1.7313503E+000	38	3.6367348E-001	-1.5033551E-002	-1.3789740E+000
2	1	0	1	2.617929958189779E+002	-1.0114259E+000	-1.0113263E+000	1.746281764436930E+001	-1.7258930E+000	38	3.3732179E-001	-1.7660607E-002	-1.3486481E+000
2	1	0	1	2.621262958105581E+002	-1.0080926E+000	-1.0078088E+000	1.955507443401126E+001	-1.7196498E+000	38	3.1687182E-001	-1.9707777E-002	-1.3246806E+000
2	1	0	1	2.624595958021382E+002	-1.0047596E+000	-1.0051951E+000	2.144092224597247E+001	-1.7127506E+000	38	2.9437214E-001	-2.1552311E-002	-1.2995672E+000
2	1	0	1	2.627929957937158E+002	-1.0014255E+000	-1.0015409E+000	2.319614029159591E+001	-1.7052408E+000	38	2.7372798E-001	-2.3231883E-002	-1.2752689E+000
2	1	0	1	2.631263957852934E+002	-9.9809158E-001	-9.9811167E-001	2.487335008435440E+001	-1.6971593E+000	38	2.5480783E-001	-2.4826381E-002	-1.2529194E+000
2	1	0	1	2.634597957768710E+002	-9.9475747E-001	-9.9559373E-001	2.661164840036051E+001	-1.6885095E+000	38	2.2866684E-001	-2.6494389E-002	-1.2242606E+000
2	1	0	1	2.637931957684486E+002	-9.9142349E-001	-9.9080938E-001	2.790855364854008E+001	-1.6793469E+000	38	6.4817164E-003	-2.7652057E-002	-9.9729109E-001
2	1	0	1	2.641264957600288E+002	-9.8809063E-001	-9.8615497E-001	2.849169583195373E+001	-1.6699007E+000	38	-8.9325178E-001	-2.8097227E-002	-9.2903197E-002
2	1	0	1	2.644598957516064E+002	-9.8475653E-001	-9.8585975E-001	3.073992824761365E+001	-1.6599556E+000	38	-1.0489967E+000	-3.0305259E-002	6.3136935E-002
2	1	0	1	2.647931957431865E+002	-9.8142362E-001	-9.8469365E-001	3.280029674725176E+001	-1.6492926E+000	38	-1.0712398E+000	-3.2298245E-002	8.6546183E-002
2	1	0	1	2.651265957347641E+002	-9.7808957E-001	-9.7808272E-001	3.451941801907230E+001	-1.6379981E+000	38	-1.0803342E+000	-3.3762846E-002	1.0225147E-001
2	1	0	1	2.654599957263417E+002	-9.7475564E-001	-9.7525036E-001	3.609675622857057E+001	-1.6261544E+000	38	-1.0845214E+000	-3.5203375E-002	1.0927105E-001
2	1	0	1	2.657933957179193E+002	-9.7142166E-001	-9.7320116E-001	3.749716240251553E+001	-1.6138153E+000	38	-1.0889398E+000	-3.6492281E-002	1.1573863E-001
2	1	0	1	2.661267957094969E+002	-9.6808749E-001	-9.6582836E-001	3.879051744118840E+001	-1.6010298E+000	38	-1.0934554E+000	-3.7464980E-002	1.2762707E-001
2	1	0	1	2.664601957010746E+002	-9.6475369E-001	-9.6709430E-001	4.002921393819258E+001	-1.5878215E+000	38	-1.0978950E+000	-3.8712025E-002	1.3080072E-001
2	1	0	1	2.667934956926547E+002	-9.6142048E-001	-9.6087247E-001	4.114774408864616E+001	-1.5742242E+000	38	-1.1012747E+000	-3.9537735E-002	1.4040226E-001
2	1	0	1	2.671267956842348E+002	-9.5808762E-001	-9.6105516E-001	4.221174397631307E+001	-1.5602633E+000	38	-1.1050807E+000	-4.0567815E-002	1.4402556E-001
2	1	0	1	2.674601956758124E+002	-9.5475352E-001	-9.5762527E-001	4.326562513588006E+001	-1.5459450E+000	38	-1.1077880E+000	-4.1432258E-002	1.5016270E-001
2	1	0	1	2.677768956678119E+002	-9.5158666E-001	-9.4910043E-001	4.424000450046435E+001	-1.5320307E+000	38	-1.1105331E+000	-4.1988209E-002	1.6143268E-001
2	1	0	0	2.679189956642222E+002	-9.4991910E-001	-9.4371784E-001	4.536884706670588E+001	-1.5257069E+000	38	-1.1124927E+000	-4.2815391E-002	1.6877484E-001
2	0	0	0	3.579471933899185E+002	-1.2169498E+000	-1.2179716E+000	-1.995168911803002E+002	-7.1017966E-003	37	6.3509810E-001	2.4300590E-001	-1.8530697E+000
2	0	0	1	3.581305933852855E+002	-1.2151167E+000	-1.2153188E+000	-1.967803515899888E+002	-4.3215804E-002	37	6.3374317E-001	2.3915087E-001	-1.8490620E+000
2	0	0	1	3.584639933768631E+002	-1.2117823E+000	-1.2122238E+000	-1.922727568926639E+002	-1.0796667E-001	37	6.3204920E-001	2.3307760E-001	-1.8442730E+000
2	0	0	1	3.587973933684407E+002	-1.2084484E+000	-1.2086713E+000	-1.878638255472029E+002	-1.7123207E-001	37	6.3071895E-001	2.2706562E-001	-1.8393903E+000
2	0	0	1	3.591306933600208E+002	-1.2051156E+000	-1.2056772E+000	-1.839065264826180E+002	-2.3309283E-001	37	6.2921542E-001	2.2173190E-001	-1.8348925E+000
2	0	0	1	3.594639933516009E+002	-1.2017825E+000	-1.2023492E+000	-1.795843371669511E+002	-2.9356802E-001	37	6.2764800E-001	2.1592309E-001	-1.8299972E+000
2	0	0	1	3.597973933431786E+002	-1.1984488E+000	-1.1998006E+000	-1.753425385896544E+002	-3.5263446E-001	37	6.2612504E-001	2.1037608E-001	-1.8259256E+000
2	0	0	1	3.601307933347562E+002	-1.1951144E+000	-1.1956522E+000	-1.711230620498598E+002	-4.1029143E-001	37	6.2470454E-001	2.0460367E-001	-1.8203568E+000
2	0	0	1	3.604641933263338E+002	-1.1917806E+000	-1.1923240E+000	-1.668145715732728E+002	-4.6652338E-001	37	6.2311572E-001	1.9889702E-001	-1.8154397E+000
2	0	0	1	3.607975933179114E+002	-1.1884465E+000	-1.1891851E+000	-1.626387690648844E+002	-5.2134413E-001	37	6.2170011E-001	1.9340761E-001	-1.8108852E+000
2	0	0	1	3.611309933094890E+002	-1.1851125E+000	-1.1857424E+000	-1.585331907266420E+002	-5.7478607E-001	37	6.2002015E-001	1.8797952E-001	-1.8057625E+000
2	0	0	1	3.614642933010691E+002	-1.1817796E+000	-1.1819398E+000	-1.542509914759435E+002	-6.2680703E-001	37	6.1843240E-001	1.8231539E-001	-1.8003722E+000
2	0	0	1	3.617975932926493E+002	-1.1784464E+000	-1.1793549E+000	-1.501932346483229E+002	-6.7744160E-001	37	6.1690176E-001	1.7713113E-001	-1.7962567E+000
2	0	0	1	3.621309932842269E+002	-1.1751127E+000	-1.1752911E+000	-1.462009607437053E+002	-7.2675198E-001	37	6.1527371E-001	1.7182869E-001	-1.7905648E+000
2	0	0	1	3.624643932758045E+002	-1.1717783E+000	-1.1721318E+000	-1.420744776607086E+002	-7.7470660E-001	37	6.1355573E-001	1.6653001E-001	-1.7856874E+000
2	0	0	1	3.627977932673821E+002	-1.1684446E+000	-1.1687009E+000	-1.379839824744981E+002	-8.2128960E-001	37	6.1198318E-001	1.6126201E-001	-1.7806841E+000
2	0	0	1	3.631311932589597E+002	-1.1651103E+000	-1.1657690E+000	-1.339636655804309E+002	-8.6652303E-001	37	6.1044109E-001	1.5617068E-001	-1.7762101E+000
2	0	0	1	3.634645932505373E+002	-1.1617765E+000	-1.1620132E+000	-1.299153784185839E+002	-9.1041154E-001	37	6.0895503E-001	1.5096338E-001	-1.7709682E+000
2	0	0	1	3.637978932421174E+002	-1.1584436E+000	-1.1586977E+000	-1.261049600268552E+002	-9.5297718E-001	37	6.0731411E-001	1.4611752E-001	-1.7660118E+000
2	0	0	1	3.641311932336976E+002	-1.1551104E+000	-1.1559671E+000	-1.220809824822509E+002	-9.9423718E-001	37	6.0557228E-001	1.4112160E-001	-1.7615395E+000
2	0	0	1	3.644645932252752E+002	-1.1517767E+000	-1.1522340E+000	-1.180814709654305E+002	-1.0341702E+000	37	6.0394365E-001	1.3605748E-001	-1.7561777E+000
2	0	0	1	3.647979932168528E+002	-1.1484424E+000	-1.1492300E+000	-1.141344519165499E+002	-1.0727807E+000	37	6.0230088E-001	1.3116674E-001	-1.7515309E+000
2	0	0	1	3.651313932084304E+002	-1.1451086E+000	-1.1455359E+000	-1.101992626006099E+002	-1.1100760E+000	37	6.0049587E-001	1.2623721E-001	-1.7460318E+000
2	0	0	1	3.654647932000080E+002	-1.1417744E+000	-1.1413088E+000	-1.064523175862491E+002	-1.1460919E+000	37	5.9882963E-001	1.2149496E-001	-1.7401384E+000
2	0	0	1	3.657981931915856E+002	-1.1384405E+000	-1.1384711E+000	-1.025560541934788E+002	-1.1808344E+000	37	5.9708369E-001	1.1675711E-001	-1.7355548E+000
2	0	0	1	3.661314931831657E+002	-1.1351078E+000	-1.1365826E+000	-9.872144438637179E+001	-1.2142751E+000	37	5.9515679E-001	1.1220508E-001	-1.7317394E+000
2	0	0	1	3.664648931747433E+002	-1.1317735E+000	-1.1318657E+000	-9.495717699935904E+001	-1.2464625E+000	37	5.9386373E-001	1.0747878E-001	-1.7257295E+000
2	0	0	1	3.667981931663235E+002	-1.1284406E+000	-1.1285774E+000	-9.134201050428867E+001	-1.2774113E+000	37	5.9171957E-001	1.0308652E-001	-1.7202969E+000
2	0	0	1	3.671315931579011E+002	-1.1251065E+000	-1.1258446E+000	-8.763304264241128E+001	-1.3071446E+000	37	5.8984971E-001	9.8661184E-002	-1.7156943E+000
2	0	0	1	3.674649931494787E+002	-1.1217724E+000	-1.1218512E+000	-8.398660418290331E+001	-1.3356551E+000	37	5.8818078E-001	9.4220474E-002	-1.7100320E+000
2	0	0	1	3.677983931410563E+002	-1.1184384E+000	-1.1195396E+000	-8.041370915564789E+001	-1.3629651E+000	37	5.8653110E-001	9.0026334E-002	-1.7060707E+000
2	0	0	1	3.681317931326339E+002	-1.1151044E+000	-1.1150217E+000	-7.696634493600209E+001	-1.3891075E+000	37	5.8448088E-001	8.5819148E-002	-1.6995026E+000
2	0	0	1	3.684650931242140E+002	-1.1117716E+000	-1.1129876E+000	-7.343888944587093E+001	-1.4140757E+000	37	5.8276612E-001	8.1736580E-002	-1.6957538E+000
2	0	0	1	3.687983931157942E+002	-1.1084384E+000	-1.1075534E+000	-6.997335564308764E+001	-1.4378771E+000	37	5.8065230E-001	7.7499226E-002	-1.6882057E+000
2	0	0	1	3.691317931073718E+002	-1.1051046E+000	-1.1052920E+000	-6.654654015186759E+001	-1.4605364E+000	37	5.7898766E-001	7.3553354E-002	-1.6842797E+000
2	0	0	1	3.694651930989494E+002	-1.1017704E+000	-1.1033592E+000	-6.319905248401665E+001	-1.4820685E+000	37	5.7693464E-001	6.9731258E-002	-1.6802938E+000
2	0	0	1	3.697985930905270E+002	-1.0984365E+000	-1.0979687E+000	-5.988216525964708E+001	-1.5024887E+000	37	5.7494140E-001	6.5748744E-002	-1.6729101E+000
2	0	0	1	3.701319930821046E+002	-1.0951025E+000	-1.0953555E+000	-5.662529581260947E+001	-1.5218140E+000	37	5.7290751E-001	6.2024828E-002	-1.6682630E+000
2	0	0	1	3.704653930736822E+002	-1.0917685E+000	-1.0925976E+000	-5.342078528300010E+001	-1.5400625E+000	37	5.7096177E-001	5.8367424E-002	-1.6635594E+000
2	0	0	1	3.707986930652623E+002	-1.0884356E+000	-1.0897992E+000	-5.021930399953357E+001	-1.5572382E+000	37	5.6901634E-001	5.4728955E-002	-1.6588155E+000
2	0	0	1	3.711320930568399E+002	-1.0851015E+000	-1.0843948E+000	-4.711230897888564E+001	-1.5733684E+000	37	5.6635398E-001	5.1088344E-002	-1.6507487E+000
2	0	0	1	3.714820930479982E+002	-1.0816016E+000	-1.0821041E+000	-4.397634595340406E+001	-1.5891867E+000	37	5.6465626E-001	4.7586985E-002	-1.6467603E+000
2	0	0	1	3.718321930391539E+002	-1.0781007E+000	-1.0791945E+000	-4.078242102660030E+001	-1.6039537E+000	38	5.6224000E-001	4.4012167E-002	-1.6414346E+000
2	0	0	1	3.721655930307315E+002	-1.0747664E+000	-1.0762361E+000	-3.776672881841432E+001	-1.6169537E+000	38	5.5991572E-001	4.0645920E-002	-1.6361518E+000
2	0	0	1	3.724988930223117E+002	-1.0714337E+000	-1.0717763E+000	-3.478496840479306E+001	-1.6289514E+000	38	5.5764538E-001	3.7281703E-002	-1.6294217E+000
2	0	0	1	3.728321930138918E+002	-1.0681002E+000	-1.0684443E+000	-3.181870074188600E+001	-1.6399583E+000	38	5.5520213E-001	3.3996508E-002	-1.6236464E+000
2	0	0	1	3.731655930054694E+002	-1.0647665E+000	-1.0640488E+000	-2.889505571041887E+001	-1.6499850E+000	38	5.5266160E-001	3.0745748E-002	-1.6167104E+000
2	0	0	1	3.734989929970470E+002	-1.0614325E+000	-1.0616264E+000	-2.600722236513957E+001	-1.6590433E+000	38	5.4984295E-001	2.7609956E-002	-1.6114694E+000
2	0	0	1	3.738323929886246E+002	-1.0580984E+000	-1.0585595E+000	-2.315947503748887E+001	-1.6671468E+000	38	5.4715520E-001	2.4515683E-002	-1.6057148E+000
2	0	0	1	3.741657929802022E+002	-1.0547644E+000	-1.0560029E+000	-2.033398240795484E+001	-1.6743063E+000	38	5.4377311E-001	2.1472743E-002	-1.5997760E+000
2	0	0	1	3.744991929717798E+002	-1.0514305E+000	-1.0531510E+000	-1.746157102137420E+001	-1.6805141E+000	38	5.4042989E-001	1.8389672E-002	-1.5935810E+000
2	0	0	1	3.748324929633600E+002	-1.0480976E+000	-1.0491868E+000	-1.459438796335024E+001	-1.6857634E+000	38	5.3632945E-001	1.5312240E-002	-1.5855162E+000
2	0	0	1	3.751658929549376E+002	-1.0447634E+000	-1.0444390E+000	-1.173336955101624E+001	-1.6900594E+000	38	5.3205258E-001	1.2254789E-002	-1.5764916E+000
2	0	0	1	3.754991929465177E+002	-1.0414306E+000	-1.0413636E+000	-8.788697100913609E+000	-1.6933862E+000	38	5.2700311E-001	9.1522289E-003	-1.5683668E+000
2	0	0	1	3.758492929376735E+002	-1.0379295E+000	-1.0391634E+000	-5.684775992412796E+000	-1.6957974E+000	38	5.2006710E-001	5.9074108E-003	-1.5592304E+000
2	0	0	1	3.761993929288292E+002	-1.0344285E+000	-1.0347692E+000	-2.446942356311098E+000	-1.6971462E+000	39	5.1029146E-001	2.5320204E-003	-1.5450606E+000
2	0	0	1	3.765326929204093E+002	-1.0310956E+000	-1.0314612E+000	7.548325511235028E-001	-1.6973336E+000	39	4.9568328E-001	-7.7858049E-004	-1.5271446E+000
2	1	0	1	3.768660929119869E+002	-1.0277616E+000	-1.0289803E+000	3.961268339508933E+000	-1.6964524E+000	39	4.7491845E-001	-4.0760669E-003	-1.5038987E+000
2	1	0	1	3.771993929035671E+002	-1.0244287E+000	-1.0249877E+000	7.047348379823148E+000	-1.6945232E+000	39	4.4763994E-001	-7.2234455E-003	-1.4726276E+000
2	1	0	1	3.775494928947228E+002	-1.0209275E+000	-1.0198359E+000	1.017901970517305E+001	-1.6913834E+000	39	4.1451341E-001	-1.0380930E-002	-1.4343493E+000
2	1	0	1	3.778995928858785E+002	-1.0174266E+000	-1.0177122E+000	1.327918971599954E+001	-1.6872009E+000	38	3.8072926E-001	-1.3514394E-002	-1.3984416E+000
2	1	0	1	3.782328928774587E+002	-1.0140938E+000	-1.0157975E+000	1.622616594917024E+001	-1.6821892E+000	38	3.4969205E-001	-1.6482498E-002	-1.3654895E+000
2	1	0	1	3.785661928690388E+002	-1.0107604E+000	-1.0116386E+000	1.868862230599200E+001	-1.6762779E+000	38	3.2510543E-001	-1.8906133E-002	-1.3367441E+000
2	1	0	1	3.788995928606164E+002	-1.0074266E+000	-1.0070995E+000	2.061343705258804E+001	-1.6696414E+000	38	3.0458209E-001	-2.0759782E-002	-1.3116816E+000
2	1	0	1	3.792329928521940E+002	-1.0040922E+000	-1.0058234E+000	2.235730215682906E+001	-1.6623948E+000	38	2.8476509E-001	-2.2487497E-002	-1.2905885E+000
2	1	0	1	3.795663928437716E+002	-1.0007586E+000	-1.0020388E+000	2.386568009182076E+001	-1.6546098E+000	38	2.6874128E-001	-2.3914339E-002	-1.2707801E+000
2	1	0	1	3.798997928353492E+002	-9.9742442E-001	-9.9781799E-001	2.537382838926561E+001	-1.6463215E+000	38	2.5314504E-001	-2.5318462E-002	-1.2509630E+000
2	1	0	1	3.802331928269268E+002	-9.9409050E-001	-9.9463540E-001	2.709969504052394E+001	-1.6374931E+000	38	2.3007125E-001	-2.6954316E-002	-1.2247066E+000
2	1	0	1	3.805664928185070E+002	-9.9075747E-001	-9.9042559E-001	2.843655931185913E+001	-1.6281502E+000	38	2.5362130E-002	-2.8164295E-002	-1.0157877E+000
2	1	0	1	3.808997928100871E+002	-9.8742431E-001	-9.8764366E-001	2.894889267308429E+001	-1.6185211E+000	38	-8.7752432E-001	-2.8591190E-002	-1.1011934E-001
2	1	0	1	3.812331928016647E+002	-9.8409063E-001	-9.8387426E-001	3.117322344321203E+001	-1.6084187E+000	38	-1.0474988E+000	-3.0670533E-002	6.3624561E-002
2	1	0	1	3.815665927932423E+002	-9.8075646E-001	-9.8012823E-001	3.318310907851763E+001	-1.5976039E+000	38	-1.0653342E+000	-3.2523703E-002	8.5205972E-002
2	1	0	1	3.818999927848199E+002	-9.7742260E-001	-9.7761649E-001	3.486349392132178E+001	-1.5861776E+000	38	-1.0742872E+000	-3.4083128E-002	9.6670687E-002
2	1	0	1	3.822333927763975E+002	-9.7408837E-001	-9.7407031E-001	3.639637872060996E+001	-1.5742165E+000	38	-1.0782999E+000	-3.5452630E-002	1.0422957E-001
2	1	0	1	3.825667927679751E+002	-9.7075438E-001	-9.6978253E-001	3.768383671895674E+001	-1.5617878E+000	38	-1.0826576E+000	-3.6545128E-002	1.1287504E-001
2	1	0	1	3.829000927595553E+002	-9.6742141E-001	-9.6812218E-001	3.888446440766900E+001	-1.5489503E+000	38	-1.0876282E+000	-3.7644912E-002	1.1950606E-001
2	1	0	1	3.832333927511354E+002	-9.6408832E-001	-9.6320993E-001	4.004923022667299E+001	-1.5357199E+000	38	-1.0922912E+000	-3.8575817E-002	1.2908131E-001
2	1	0	1	3.835667927427130E+002	-9.6075451E-001	-9.6247822E-001	4.114508885224762E+001	-1.5221081E+000	38	-1.0959905E+000	-3.9601251E-002	1.3351232E-001
2	1	0	1	3.839001927342906E+002	-9.5742053E-001	-9.5796084E-001	4.221912124647747E+001	-1.5081371E+000	38	-1.0996351E+000	-4.0444266E-002	1.4167428E-001
2	1	0	1	3.842335927258682E+002	-9.5408654E-001	-9.5556200E-001	4.327840129859146E+001	-1.4938096E+000	38	-1.1024376E+000	-4.1355196E-002	1.4687562E-001
2	1	0	1	3.845169927187089E+002	-9.5125216E-001	-9.5203447E-001	4.417008254933828E+001	-1.4813744E+000	38	-1.1047856E+000	-4.2051442E-002	1.5275109E-001
2	1	0	0	3.846255927159655E+002	-9.4991910E-001	-9.5014685E-001	4.523245177158088E+001	-1.4765459E+000	38	-1.1062248E+000	-4.2977471E-002	1.5607792E-001
2	0	0	0	4.746537904416618E+002	-1.2136161E+000	-1.2137085E+000	-1.997449714810246E+002	-7.1081161E-003	37	6.3261276E-001	2.4243218E-001	-1.8463213E+000
2	0	0	1	4.748371904370288E+002	-1.2117829E+000	-1.2111548E+000	-1.969326807781740E+002	-4.3247756E-002	37	6.3130474E-001	2.3851596E-001	-1.8424596E+000
2	0	0	1	4.751705904286064E+002	-1.2084488E+000	-1.2095830E+000	-1.923612379052803E+002	-1.0803158E-001	37	6.2990367E-001	2.3267689E-001	-1.8394867E+000
2	0	0	1	4.755039904201840E+002	-1.2051148E+000	-1.2058561E+000	-1.879482538443876E+002	-1.7132159E-001	37	6.2827009E-001	2.2663854E-001	-1.8341262E+000
2	0	0	1	4.758372904117641E+002	-1.2017817E+000	-1.2032349E+000	-1.834165846988753E+002	-2.3310219E-001	37	6.2696272E-001	2.2069323E-001	-1.8301976E+000
2	0	0	1	4.761705904033442E+002	-1.1984488E+000	-1.1996790E+000	-1.790863022169398E+002	-2.9340881E-001	37	6.2508160E-001	2.1484607E-001	-1.8247607E+000
2	0	0	1	4.765039903949219E+002	-1.1951151E+000	-1.1957937E+000	-1.745676247509086E+002	-3.5225311E-001	37	6.2354469E-001	2.0874688E-001	-1.8193384E+000
2	0	0	1	4.768373903864995E+002	-1.1917808E+000	-1.1922919E+000	-1.701613169910111E+002	-4.0960941E-001	37	6.2223601E-001	2.0288195E-001	-1.8145279E+000
2	0	0	1	4.771707903780771E+002	-1.1884469E+000	-1.1885992E+000	-1.658614177904624E+002	-4.6551883E-001	37	6.2066746E-001	1.9714275E-001	-1.8092667E+000
2	0	0	1	4.775041903696547E+002	-1.1851127E+000	-1.1860186E+000	-1.616322145849265E+002	-5.2000475E-001	37	6.1903518E-001	1.9169880E-001	-1.8050537E+000
2	0	0	1	4.778375903612323E+002	-1.1817788E+000	-1.1822209E+000	-1.574790044831888E+002	-5.7309574E-001	37	6.1739415E-001	1.8617497E-001	-1.7996151E+000
2	0	0	1	4.781708903528124E+002	-1.1784461E+000	-1.1787785E+000	-1.532422509250455E+002	-6.2476921E-001	37	6.1616158E-001	1.8063867E-001	-1.7949401E+000
2	0	0	1	4.785041903443926E+002	-1.1751127E+000	-1.1754779E+000	-1.490130910511156E+002	-6.7503572E-001	37	6.1446148E-001	1.7516159E-001	-1.7899394E+000
2	0	0	1	4.788375903359702E+002	-1.1717789E+000	-1.1713887E+000	-1.447058816119961E+002	-7.2389340E-001	37	6.1253786E-001	1.6950685E-001	-1.7839266E+000
2	0	0	1	4.791709903275478E+002	-1.1684446E+000	-1.1688011E+000	-1.405816696248658E+002	-7.7134198E-001	37	6.1074597E-001	1.6431201E-001	-1.7795470E+000
2	0	0	1	4.795043903191254E+002	-1.1651108E+000	-1.1650047E+000	-1.364374281797423E+002	-8.1741357E-001	37	6.0931468E-001	1.5895025E-001	-1.7743194E+000
2	0	0	1	4.798377903107030E+002	-1.1617770E+000	-1.1629654E+000	-1.322932621773525E+002	-8.6210471E-001	37	6.0756499E-001	1.5385249E-001	-1.7705305E+000
2	0	0	1	4.801711903022806E+002	-1.1584429E+000	-1.1581451E+000	-1.282516943366971E+002	-9.0543205E-001	37	6.0590065E-001	1.4853407E-001	-1.7640457E+000
2	0	0	1	4.805044902938607E+002	-1.1551100E+000	-1.1556556E+000	-1.241362883192396E+002	-9.4738680E-001	37	6.0430676E-001	1.4345880E-001	-1.7599623E+000
2	0	0	1	4.808377902854409E+002	-1.1517767E+000	-1.1520734E+000	-1.202065334459317E+002	-9.8800349E-001	37	6.0273987E-001	1.3848674E-001	-1.7548132E+000
2	0	0	1	4.811711902770185E+002	-1.1484430E+000	-1.1491728E+000	-1.162367601354870E+002	-1.0273131E+000	37	6.0133976E-001	1.3357612E-001	-1.7505126E+000
2	0	0	1	4.815045902685961E+002	-1.1451088E+000	-1.1456021E+000	-1.122481203421705E+002	-1.0652989E+000	37	5.9932899E-001	1.2859169E-001	-1.7449311E+000
2	0	0	1	4.818379902601737E+002	-1.1417748E+000	-1.1413655E+000	-1.083222520996483E+002	-1.1019629E+000	37	5.9766561E-001	1.2363528E-001	-1.7390311E+000
2	0	0	1	4.821713902517513E+002	-1.1384406E+000	-1.1383655E+000	-1.044684494482915E+002	-1.1373299E+000	37	5.9548837E-001	1.1892328E-001	-1.7338538E+000
2	0	0	1	4.825047902433289E+002	-1.1351068E+000	-1.1357529E+000	-1.006651413234108E+002	-1.1714227E+000	37	5.9410495E-001	1.1433073E-001	-1.7298579E+000
2	0	0	1	4.828380902349090E+002	-1.1317739E+000	-1.1323892E+000	-9.677156163608743E+001	-1.2042242E+000	37	5.9227574E-001	1.0958307E-001	-1.7246649E+000
2	0	0	1	4.831714902264866E+002	-1.1284398E+000	-1.1289389E+000	-9.300252476021814E+001	-1.2357596E+000	37	5.9047735E-001	1.0499417E-001	-1.7194163E+000
2	0	0	1	4.835047902180668E+002	-1.1251069E+000	-1.1252496E+000	-8.930831102588030E+001	-1.2660433E+000	37	5.8878464E-001	1.0049415E-001	-1.7140343E+000
2	0	0	1	4.838381902096444E+002	-1.1217728E+000	-1.1222067E+000	-8.565856632602367E+001	-1.2951125E+000	37	5.8690089E-001	9.6126616E-002	-1.7091076E+000
2	0	0	1	4.841715902012220E+002	-1.1184388E+000	-1.1188016E+000	-8.203158642999574E+001	-1.3229680E+000	37	5.8517730E-001	9.1777071E-002	-1.7039789E+000
2	0	0	1	4.845049901927996E+002	-1.1151047E+000	-1.1152128E+000	-7.858461465990081E+001	-1.3496476E+000	37	5.8330679E-001	8.7638564E-002	-1.6985196E+000
2	0	0	1	4.848383901843772E+002	-1.1117706E+000	-1.1123308E+000	-7.500253531792896E+001	-1.3751527E+000	37	5.8152944E-001	8.3427630E-002	-1.6938603E+000
2	0	0	1	4.851717901759548E+002	-1.1084369E+000	-1.1089575E+000	-7.146273540304810E+001	-1.3994710E+000	37	5.7964623E-001	7.9249136E-002	-1.6886038E+000
2	0	0	1	4.855050901675349E+002	-1.1051039E+000	-1.1055017E+000	-6.792872544216584E+001	-1.4226032E+000	37	5.7769120E-001	7.5095318E-002	-1.6831928E+000
2	0	0	1	4.858383901591151E+002	-1.1017709E+000	-1.1025301E+000	-6.443727965479110E+001	-1.4445651E+000	37	5.7567656E-001	7.1044043E-002	-1.6782067E+000
2	0	0	1	4.861717901506927E+002	-1.0984368E+000	-1.0989407E+000	-6.104316013068376E+001	-1.4653844E+000	37	5.7365572E-001	6.7082815E-002	-1.6725965E+000
2	0	0	1	4.865051901422703E+002	-1.0951028E+000	-1.0959406E+000	-5.769435051343720E+001	-1.4850807E+000	37	5.7157665E-001	6.3229583E-002	-1.6675172E+000
2	0	0	1	4.868385901338479E+002	-1.0917689E+000	-1.0916125E+000	-5.438348611831498E+001	-1.5036682E+000	37	5.6961256E-001	5.9365690E-002	-1.6612251E+000
2	0	0	1	4.871719901254255E+002	-1.0884347E+000	-1.0888784E+000	-5.111577640203126E+001	-1.5211594E+000	37	5.6745958E-001	5.5658866E-002	-1.6563380E+000
2	0	0	1	4.875052901170056E+002	-1.0851020E+000	-1.0855763E+000	-4.792348107128969E+001	-1.5375693E+000	37	5.6549042E-001	5.2024595E-002	-1.6510668E+000
2	0	0	1	4.878552901081639E+002	-1.0816017E+000	-1.0815545E+000	-4.463485030710842E+001	-1.5536448E+000	37	5.6302214E-001	4.8275024E-002	-1.6445767E+000
2	0	0	1	4.882053900993196E+002	-1.0781009E+000	-1.0780033E+000	-4.141351363571496E+001	-1.5686371E+000	38	5.6068963E-001	4.4643905E-002	-1.6386929E+000
2	0	0	1	4.885387900908972E+002	-1.0747669E+000	-1.0755829E+000	-3.839763356296555E+001	-1.5818483E+000	38	5.5842859E-001	4.1299835E-002	-1.6340115E+000
2	0	0	1	4.888721900824748E+002	-1.0714326E+000	-1.0727428E+000	-3.534432743196464E+001	-1.5940471E+000	38	5.5604100E-001	3.7915375E-002	-1.6287838E+000
2	0	0	1	4.892054900740550E+002	-1.0680999E+000	-1.0684627E+000	-3.231185022236446E+001	-1.6052269E+000	38	5.5388230E-001	3.4524009E-002	-1.6223450E+000
2	0	0	1	4.895387900656351E+002	-1.0647665E+000	-1.0641401E+000	-2.931603753587206E+001	-1.6154013E+000	38	5.5058134E-001	3.1196371E-002	-1.6147214E+000
2	0	0	1	4.898721900572127E+002	-1.0614330E+000	-1.0616766E+000	-2.638824197535575E+001	-1.6245919E+000	38	5.4790336E-001	2.8015779E-002	-1.6095800E+000
2	0	0	1	4.902055900487903E+002	-1.0580989E+000	-1.0588626E+000	-2.345717404884758E+001	-1.6328056E+000	38	5.4495770E-001	2.4837924E-002	-1.6038203E+000
2	0	0	1	4.905389900403679E+002	-1.0547649E+000	-1.0538336E+000	-2.054528002827053E+001	-1.6400467E+000	38	5.4193687E-001	2.1651307E-002	-1.5957705E+000
2	0	0	1	4.908723900319455E+002	-1.0514308E+000	-1.0513567E+000	-1.762476713552614E+001	-1.6463137E+000	38	5.3837401E-001	1.8529916E-002	-1.5897307E+000
2	0	0	1	4.912057900235232E+002	-1.0480967E+000	-1.0487127E+000	-1.471512355929957E+001	-1.6516087E+000	38	5.3455162E-001	1.5431938E-002	-1.5832644E+000
2	0	0	1	4.915390900151033E+002	-1.0447639E+000	-1.0454323E+000	-1.180530797173085E+001	-1.6559349E+000	38	5.3024679E-001	1.2341650E-002	-1.5756791E+000
2	0	0	1	4.918724900066809E+002	-1.0414298E+000	-1.0425432E+000	-8.804928693141861E+000	-1.6592764E+000	38	5.2477717E-001	9.1795186E-003	-1.5673203E+000
2	0	0	1	4.922057899982610E+002	-1.0380969E+000	-1.0383850E+000	-5.746540648651532E+000	-1.6616064E+000	38	5.1831090E-001	5.9671220E-003	-1.5566959E+000
2	0	0	1	4.925725899889949E+002	-1.0344287E+000	-1.0340104E+000	-2.312412350572792E+000	-1.6629803E+000	39	5.0760138E-001	2.3910585E-003	-1.5416118E+000
2	0	0	1	4.929059899805725E+002	-1.0310947E+000	-1.0316950E+000	9.440986252377943E-001	-1.6631100E+000	39	4.9354684E-001	-9.7402185E-004	-1.5252419E+000
2	1	0	1	4.932392899721526E+002	-1.0277621E+000	-1.0281523E+000	4.156888961317535E+000	-1.6621628E+000	39	4.7267130E-001	-4.2739152E-003	-1.5008236E+000
2	1	0	1	4.935726899637302E+002	-1.0244279E+000	-1.0251985E+000	7.236730935558114E+000	-1.6601666E+000	39	4.4573742E-001	-7.4190856E-003	-1.4709358E+000
2	1	0	1	4.939226899548885E+002	-1.0209279E+000	-1.0208477E+000	1.036515320895244E+001	-1.6569582E+000	39	4.1310209E-001	-1.0581243E-002	-1.4339497E+000
2	1	0	1	4.942727899460442E+002	-1.0174267E+000	-1.0168911E+000	1.354515864529310E+001	-1.6526920E+000	38	3.7891194E-001	-1.3773952E-002	-1.3958031E+000
2	1	0	1	4.946061899376218E+002	-1.0140928E+000	-1.0135158E+000	1.649610453689485E+001	-1.6475875E+000	38	3.4887579E-001	-1.6719064E-002	-1.3623916E+000
2	1	0	1	4.949394899292020E+002	-1.0107599E+000	-1.0111376E+000	1.880424004529988E+001	-1.6416116E+000	38	3.2424352E-001	-1.9013675E-002	-1.3353812E+000
2	1	0	1	4.952728899207796E+002	-1.0074258E+000	-1.0067340E+000	2.060335292188807E+001	-1.6349574E+000	38	3.0366382E-001	-2.0742096E-002	-1.3103979E+000
2	1	0	1	4.956061899123597E+002	-1.0040929E+000	-1.0052724E+000	2.217550850878686E+001	-1.6277448E+000	38	2.8651005E-001	-2.2292426E-002	-1.2917824E+000
2	1	0	1	4.959395899039373E+002	-1.0007588E+000	-1.0004727E+000	2.360792783189413E+001	-1.6200318E+000	38	2.7273855E-001	-2.3619086E-002	-1.2732112E+000
2	1	0	1	4.962729898955149E+002	-9.9742478E-001	-9.9789608E-001	2.506783493069742E+001	-1.6118350E+000	38	2.5933585E-001	-2.5015093E-002	-1.2572320E+000
2	1	0	1	4.966063898870925E+002	-9.9409074E-001	-9.9488294E-001	2.656205881920909E+001	-1.6031466E+000	38	2.4396448E-001	-2.6426138E-002	-1.2388474E+000
2	1	0	1	4.969397898786701E+002	-9.9075675E-001	-9.9086499E-001	2.830033439441615E+001	-1.5939190E+000	38	1.9596340E-001	-2.8041810E-002	-1.1868284E+000
2	1	0	1	4.972730898702503E+002	-9.8742372E-001	-9.8825514E-001	2.910307901120227E+001	-1.5842694E+000	38	-2.6855054E-001	-2.8761268E-002	-7.1970463E-001
2	1	0	1	4.976063898618304E+002	-9.8409063E-001	-9.8490632E-001	3.038383430282414E+001	-1.5742970E+000	38	-1.0076087E+000	-2.9925231E-002	2.2702336E-002
2	1	0	1	4.979397898534080E+002	-9.8075694E-001	-9.7955173E-001	3.261221673994930E+001	-1.5637071E+000	38	-1.0588554E+000	-3.1945355E-002	7.9303682E-002
2	1	0	1	4.982731898449856E+002	-9.7742277E-001	-9.7735649E-001	3.439328486272143E+001	-1.5524523E+000	38	-1.0678496E+000	-3.3614501E-002	9.0493143E-002
2	1	0	1	4.986065898365632E+002	-9.7408879E-001	-9.7309428E-001	3.595641471022736E+001	-1.5406435E+000	38	-1.0741411E+000	-3.4988981E-002	1.0104686E-001
2	1	0	1	4.989399898281408E+002	-9.7075462E-001	-9.7221810E-001	3.732938707840458E+001	-1.5283467E+000	38	-1.0787187E+000	-3.6292307E-002	1.0650057E-001
2	1	0	1	4.992733898197184E+002	-9.6742070E-001	-9.6642005E-001	3.853326687747267E+001	-1.5156229E+000	38	-1.0833654E+000	-3.7239321E-002	1.1694539E-001
2	1	0	1	4.996066898112986E+002	-9.6408796E-001	-9.6551174E-001	3.968533800393118E+001	-1.5025103E+000	38	-1.0876637E+000	-3.8316660E-002	1.2215191E-001
2	1	0	1	4.999400898028762E+002	-9.6075374E-001	-9.5825684E-001	4.076348804675746E+001	-1.4890227E+000	38	-1.0912514E+000	-3.9061893E-002	1.3299453E-001
2	1	0	1	5.002733897944563E+002	-9.5742095E-001	-9.5656908E-001	4.186341393809323E+001	-1.4751778E+000	38	-1.0949011E+000	-4.0045246E-002	1.3833201E-001
2	1	0	1	5.006067897860339E+002	-9.5408678E-001	-9.5710683E-001	4.297464040002569E+001	-1.4609605E+000	38	-1.0977019E+000	-4.1131321E-002	1.4059508E-001
2	1	0	1	5.008901897788746E+002	-9.5125288E-001	-9.5309824E-001	4.396430583928490E+001	-1.4485998E+000	38	-1.1002756E+000	-4.1902304E-002	1.4717740E-001
2	1	0	1	5.009987897761312E+002	-9.4991910E-001	-9.5022702E-001	4.504176729778911E+001	-1.4437935E+000	38	-1.1031089E+000	-4.2799905E-002	1.5288186E-001
2	0	0	0	5.900267875270947E+002	-1.2086155E+000	-1.2078258E+000	-1.948262845207669E+002	-6.9360980E-003	37	6.3062000E-001	2.3531620E-001	-1.8384458E+000
2	0	0	1	5.902101875224616E+002	-1.2067822E+000	-1.2077711E+000	-1.923162368523789E+002	-4.2230960E-002	37	6.2908876E-001	2.3227398E-001	-1.8368598E+000
2	0	0	1	5.905435875140392E+002	-1.2034481E+000	-1.2038298E+000	-1.865246618372096E+002	-1.0524937E-001	37	6.2614310E-001	2.2454394E-001	-1.8299729E+000
2	0	0	1	5.908769875056169E+002	-1.2001143E+000	-1.2003386E+000	-1.820116610463015E+002	-1.6657498E-001	37	6.2437147E-001	2.1847562E-001	-1.8247101E+000
2	0	0	1	5.912102874971970E+002	-1.1967813E+000	-1.1963326E+000	-1.775913899392453E+002	-2.2639401E-001	37	6.2289661E-001	2.1245836E-001	-1.8192291E+000
2	0	0	1	5.915435874887771E+002	-1.1934482E+000	-1.1936406E+000	-1.732114223703745E+002	-2.8474557E-001	37	6.2104100E-001	2.0675218E-001	-1.8146815E+000
2	0	0	1	5.918769874803547E+002	-1.1901144E+000	-1.1899769E+000	-1.689150668198292E+002	-3.4167099E-001	37	6.1982608E-001	2.0100503E-001	-1.8098030E+000
2	0	0	1	5.922103874719323E+002	-1.1867800E+000	-1.1876267E+000	-1.646128659162518E+002	-3.9716420E-001	37	6.1841089E-001	1.9549865E-001	-1.8060377E+000
2	0	0	1	5.925437874635099E+002	-1.1834463E+000	-1.1835631E+000	-1.602783019801439E+002	-4.5121369E-001	37	6.1663449E-001	1.8969949E-001	-1.8001976E+000
2	0	0	1	5.928771874550876E+002	-1.1801121E+000	-1.1807855E+000	-1.560566541832109E+002	-5.0384247E-001	37	6.1507219E-001	1.8426944E-001	-1.7958577E+000
2	0	0	1	5.932105874466652E+002	-1.1767782E+000	-1.1768715E+000	-1.516868467650868E+002	-5.5503851E-001	37	6.1352909E-001	1.7851593E-001	-1.7904006E+000
2	0	0	1	5.935438874382453E+002	-1.1734456E+000	-1.1733549E+000	-1.474220313847793E+002	-6.0477906E-001	37	6.1216760E-001	1.7297836E-001	-1.7855225E+000
2	0	0	1	5.938771874298254E+002	-1.1701121E+000	-1.1714246E+000	-1.431886003229602E+002	-6.5310299E-001	37	6.1042619E-001	1.6773465E-001	-1.7818508E+000
2	0	0	1	5.942105874214030E+002	-1.1667784E+000	-1.1664982E+000	-1.389717532844134E+002	-7.0003158E-001	37	6.0892212E-001	1.6211030E-001	-1.7754203E+000
2	0	0	1	5.945439874129806E+002	-1.1634440E+000	-1.1630125E+000	-1.349936635127019E+002	-7.4559492E-001	37	6.0726875E-001	1.5699932E-001	-1.7702813E+000
2	0	0	1	5.948773874045582E+002	-1.1601102E+000	-1.1605099E+000	-1.307845920334030E+002	-7.8979355E-001	37	6.0553437E-001	1.5177682E-001	-1.7660444E+000
2	0	0	1	5.952107873961359E+002	-1.1567763E+000	-1.1563475E+000	-1.266723739889039E+002	-8.3260310E-001	37	6.0413557E-001	1.4647728E-001	-1.7604830E+000
2	0	0	1	5.955441873877135E+002	-1.1534423E+000	-1.1536037E+000	-1.225261971483642E+002	-8.7403572E-001	37	6.0217822E-001	1.4134668E-001	-1.7557819E+000
2	0	0	1	5.958774873792936E+002	-1.1501094E+000	-1.1508276E+000	-1.184261276245147E+002	-9.1408497E-001	37	6.0059637E-001	1.3628806E-001	-1.7514241E+000
2	0	0	1	5.962107873708737E+002	-1.1467762E+000	-1.1468986E+000	-1.144245097186204E+002	-9.5278412E-001	37	5.9877139E-001	1.3123332E-001	-1.7456701E+000
2	0	0	1	5.965441873624513E+002	-1.1434424E+000	-1.1446213E+000	-1.105476744326169E+002	-9.9018407E-001	37	5.9691846E-001	1.2653522E-001	-1.7415397E+000
2	0	0	1	5.968775873540289E+002	-1.1401083E+000	-1.1403701E+000	-1.065994588645467E+002	-1.0262777E+000	37	5.9534788E-001	1.2156284E-001	-1.7357180E+000
2	0	0	1	5.972109873456066E+002	-1.1367742E+000	-1.1363754E+000	-1.026924576798378E+002	-1.0610632E+000	37	5.9342599E-001	1.1669718E-001	-1.7298014E+000
2	0	0	1	5.975443873371842E+002	-1.1334401E+000	-1.1330113E+000	-9.885834313729265E+001	-1.0945594E+000	37	5.9169519E-001	1.1200763E-001	-1.7247065E+000
2	0	0	1	5.978777873287618E+002	-1.1301062E+000	-1.1317300E+000	-9.506157895283718E+001	-1.1267841E+000	37	5.9025925E-001	1.0758404E-001	-1.7219892E+000
2	0	0	1	5.982110873203419E+002	-1.1267734E+000	-1.1286882E+000	-9.124610618695760E+001	-1.1577312E+000	37	5.8830458E-001	1.0298841E-001	-1.7169929E+000
2	0	0	1	5.985444873119195E+002	-1.1234392E+000	-1.1244403E+000	-8.742062630011606E+001	-1.1874114E+000	37	5.8643913E-001	9.8299280E-002	-1.7108794E+000
2	0	0	1	5.988777873034996E+002	-1.1201063E+000	-1.1200078E+000	-8.381765843435392E+001	-1.2158452E+000	37	5.8467323E-001	9.3876429E-002	-1.7046809E+000
2	0	0	1	5.992111872950773E+002	-1.1167721E+000	-1.1175822E+000	-8.018123010886256E+001	-1.2430824E+000	37	5.8267581E-001	8.9609116E-002	-1.7002580E+000
2	0	0	1	5.995445872866549E+002	-1.1134382E+000	-1.1134737E+000	-7.654754902047512E+001	-1.2691091E+000	37	5.8089298E-001	8.5233681E-002	-1.6943667E+000
2	0	0	1	5.998779872782325E+002	-1.1101041E+000	-1.1098702E+000	-7.295880858098954E+001	-1.2939332E+000	37	5.7875723E-001	8.0974810E-002	-1.6886275E+000
2	0	0	1	6.002113872698101E+002	-1.1067702E+000	-1.1081125E+000	-6.943038866319779E+001	-1.3175712E+000	37	5.7702821E-001	7.6936677E-002	-1.6851406E+000
2	0	0	1	6.005447872613877E+002	-1.1034365E+000	-1.1038910E+000	-6.593184843276606E+001	-1.3400364E+000	37	5.7493794E-001	7.2781578E-002	-1.6788290E+000
2	0	0	1	6.008780872529678E+002	-1.1001033E+000	-1.1002258E+000	-6.249495384016939E+001	-1.3613398E+000	37	5.7315451E-001	6.8758562E-002	-1.6733804E+000
2	0	0	1	6.012113872445480E+002	-1.0967704E+000	-1.0971737E+000	-5.921948535352556E+001	-1.3815264E+000	37	5.7108092E-001	6.4974062E-002	-1.6682546E+000
2	0	0	1	6.015447872361256E+002	-1.0934362E+000	-1.0939178E+000	-5.587112379126305E+001	-1.4006126E+000	37	5.6956601E-001	6.1118420E-002	-1.6634839E+000
2	0	0	1	6.018781872277032E+002	-1.0901023E+000	-1.0887362E+000	-5.252328874145633E+001	-1.4185843E+000	37	5.6713575E-001	5.7184003E-002	-1.6558719E+000
2	0	0	1	6.022115872192808E+002	-1.0867683E+000	-1.0862721E+000	-4.930683146421000E+001	-1.4354659E+000	37	5.6487429E-001	5.3560637E-002	-1.6511464E+000
2	0	0	1	6.025449872108584E+002	-1.0834341E+000	-1.0840807E+000	-4.614038101717773E+001	-1.4512842E+000	37	5.6273860E-001	5.0019898E-002	-1.6468194E+000
2	0	0	1	6.029115872015973E+002	-1.0797683E+000	-1.0798780E+000	-4.287252434017850E+001	-1.4675051E+000	38	5.6035823E-001	4.6297096E-002	-1.6402361E+000
2	0	0	1	6.032449871931749E+002	-1.0764343E+000	-1.0768261E+000	-3.975362884204617E+001	-1.4811866E+000	38	5.5787760E-001	4.2807747E-002	-1.6347036E+000
2	0	0	1	6.035783871847525E+002	-1.0731003E+000	-1.0740391E+000	-3.667732002699017E+001	-1.4938352E+000	38	5.5543107E-001	3.9392877E-002	-1.6294701E+000
2	0	0	1	6.039117871763301E+002	-1.0697663E+000	-1.0697123E+000	-3.363968815488579E+001	-1.5054651E+000	38	5.5313820E-001	3.5984788E-002	-1.6228504E+000
2	0	0	1	6.042451871679077E+002	-1.0664321E+000	-1.0660821E+000	-3.060906252616201E+001	-1.5160835E+000	38	5.5052650E-001	3.2631774E-002	-1.6166086E+000
2	0	0	1	6.045784871594879E+002	-1.0630993E+000	-1.0639180E+000	-2.764824503328298E+001	-1.5256997E+000	38	5.4773790E-001	2.9415466E-002	-1.6116560E+000
2	0	0	1	6.049117871510680E+002	-1.0597661E+000	-1.0600147E+000	-2.474333617674634E+001	-1.5343412E+000	38	5.4490399E-001	2.6228301E-002	-1.6049187E+000
2	0	0	1	6.052451871426456E+002	-1.0564324E+000	-1.0566357E+000	-2.182184037945522E+001	-1.5420132E+000	38	5.4189503E-001	2.3057736E-002	-1.5985308E+000
2	0	0	1	6.055785871342232E+002	-1.0530983E+000	-1.0527517E+000	-1.889988921784963E+001	-1.5487109E+000	38	5.3847671E-001	1.9896889E-002	-1.5912284E+000
2	0	0	1	6.059119871258008E+002	-1.0497642E+000	-1.0513690E+000	-1.596332431518186E+001	-1.5544324E+000	38	5.3487229E-001	1.6783344E-002	-1.5862412E+000
2	0	0	1	6.062453871173784E+002	-1.0464300E+000	-1.0457103E+000	-1.302434332395733E+001	-1.5591745E+000	38	5.3074944E-001	1.3619690E-002	-1.5764598E+000
2	0	0	1	6.065787871089560E+002	-1.0430961E+000	-1.0426321E+000	-1.005832304254609E+001	-1.5629336E+000	38	5.2584672E-001	1.0487131E-002	-1.5684788E+000
2	0	0	1	6.069120871005362E+002	-1.0397633E+000	-1.0408520E+000	-7.043519705525654E+000	-1.5656930E+000	38	5.1979649E-001	7.3312614E-003	-1.5606484E+000
2	0	0	1	6.072620870916944E+002	-1.0362631E+000	-1.0348881E+000	-3.833469800663828E+000	-1.5674735E+000	38	5.1136667E-001	3.9672125E-003	-1.5462549E+000
2	0	0	1	6.076121870828501E+002	-1.0327623E+000	-1.0327047E+000	-4.489074895629557E-001	-1.5681494E+000	39	4.9934801E-001	4.6358889E-004	-1.5320528E+000
2	1	0	1	6.079455870744277E+002	-1.0294281E+000	-1.0294120E+000	2.779024406489956E+000	-1.5676695E+000	39	4.8181137E-001	-2.8607612E-003	-1.5112234E+000
2	1	0	1	6.082789870660054E+002	-1.0260942E+000	-1.0252024E+000	5.907770446244612E+000	-1.5661303E+000	39	4.5796987E-001	-6.0566603E-003	-1.4831723E+000
2	1	0	1	6.086122870575855E+002	-1.0227615E+000	-1.0230256E+000	8.920426005227966E+000	-1.5635693E+000	39	4.2902392E-001	-9.1258241E-003	-1.4520495E+000
2	1	0	1	6.089456870491631E+002	-1.0194272E+000	-1.0226016E+000	1.186381048180699E+001	-1.5600026E+000	38	3.9676407E-001	-1.2131952E-002	-1.4193656E+000
2	1	0	1	6.092789870407432E+002	-1.0160943E+000	-1.0154316E+000	1.497450227355699E+001	-1.5554367E+000	38	3.6513576E-001	-1.5205584E-002	-1.3805674E+000
2	1	0	1	6.096123870323208E+002	-1.0127602E+000	-1.0106699E+000	1.766133340475997E+001	-1.5499059E+000	38	3.3760086E-001	-1.7849779E-002	-1.3482708E+000
2	1	0	1	6.099457870238984E+002	-1.0094262E+000	-1.0082266E+000	1.967578573084757E+001	-1.5435978E+000	38	3.1516209E-001	-1.9837651E-002	-1.3233887E+000
2	1	0	1	6.102791870154761E+002	-1.0060923E+000	-1.0095692E+000	2.132034809547662E+001	-1.5366855E+000	38	2.9640862E-001	-2.1524366E-002	-1.3059778E+000
2	1	0	1	6.106125870070537E+002	-1.0027581E+000	-1.0023032E+000	2.267544930730131E+001	-1.5292760E+000	38	2.8246617E-001	-2.2727676E-002	-1.2847694E+000
2	1	0	1	6.109458869986338E+002	-9.9942523E-001	-9.9971026E-001	2.399246813416775E+001	-1.5214262E+000	38	2.7050868E-001	-2.3985516E-002	-1.2702190E+000
2	1	0	1	6.112791869902139E+002	-9.9609202E-001	-9.9593687E-001	2.533849378963927E+001	-1.5131327E+000	38	2.5902253E-001	-2.5235539E-002	-1.2549593E+000
2	1	0	1	6.116125869817915E+002	-9.9275833E-001	-9.9108458E-001	2.676310665318999E+001	-1.5043746E+000	38	2.4600390E-001	-2.6524503E-002	-1.2370884E+000
2	1	0	1	6.119459869733691E+002	-9.8942417E-001	-9.8963338E-001	2.837513873542804E+001	-1.4951108E+000	38	2.0563899E-001	-2.8080985E-002	-1.1952723E+000
2	1	0	1	6.122793869649468E+002	-9.8609018E-001	-9.8680216E-001	2.953201258613876E+001	-1.4853795E+000	38	-1.3426654E-001	-2.9142253E-002	-8.5253561E-001
2	1	0	1	6.126127869565244E+002	-9.8275608E-001	-9.8132539E-001	3.044594162195568E+001	-1.4753315E+000	38	-9.8934937E-001	-2.9877376E-002	8.0239773E-003
2	1	0	1	6.129461869481020E+002	-9.7942203E-001	-9.7976881E-001	3.268918903353830E+001	-1.4647270E+000	38	-1.0607045E+000	-3.2027848E-002	8.0935657E-002
2	1	0	1	6.132794869396821E+002	-9.7608930E-001	-9.7674549E-001	3.446523415565196E+001	-1.4534568E+000	38	-1.0669138E+000	-3.3663761E-002	9.0168357E-002
2	1	0	1	6.136128869312597E+002	-9.7275513E-001	-9.7338319E-001	3.603989633695562E+001	-1.4416285E+000	38	-1.0720203E+000	-3.5080630E-002	9.8637104E-002
2	1	0	1	6.139461869228398E+002	-9.6942222E-001	-9.6833020E-001	3.735034594164586E+001	-1.4293267E+000	38	-1.0770338E+000	-3.6167469E-002	1.0870355E-001
2	1	0	1	6.142795869144175E+002	-9.6608806E-001	-9.6719772E-001	3.854266462396140E+001	-1.4166061E+000	38	-1.0822321E+000	-3.7278377E-002	1.1503440E-001
2	1	0	1	6.146129869059951E+002	-9.6275425E-001	-9.6177983E-001	3.966702009447977E+001	-1.4034996E+000	38	-1.0868958E+000	-3.8150940E-002	1.2511599E-001
2	1	0	1	6.149463868975727E+002	-9.5942026E-001	-9.5809311E-001	4.079007081182158E+001	-1.3900193E+000	38	-1.0904405E+000	-3.9080687E-002	1.3234740E-001
2	1	0	1	6.152797868891503E+002	-9.5608598E-001	-9.5669687E-001	4.189240547083068E+001	-1.3761674E+000	38	-1.0939649E+000	-4.0078335E-002	1.3726807E-001
2	1	0	1	6.156131868807279E+002	-9.5275241E-001	-9.5340973E-001	4.301719287641343E+001	-1.3619426E+000	38	-1.0971764E+000	-4.1013010E-002	1.4376670E-001
2	1	0	1	6.158297868752561E+002	-9.5058608E-001	-9.4873166E-001	4.375508820914519E+001	-1.3525366E+000	38	-1.0988712E+000	-4.1511837E-002	1.5013957E-001
2	1	0	1	6.158717868741951E+002	-9.4991910E-001	-9.4846213E-001	4.457779037120724E+001	-1.3506850E+000	38	-1.1007011E+000	-4.2280346E-002	1.5223897E-001