mode	ox/red	error	control changes	time/s	control/V	Ewe/V	<I>/mA	(Q-Qo)/C	I Range	<Ece>/V	P/W	Ewe-Ece/V	
2	0	0	1	7.299239662779291E+003	-1.1929125E+000	-1.1931963E+000	-2.007293029485973E+002	-7.1434425E-003	37	6.4488715E-001	2.3950946E-001	-1.8380835E+000
2	0	0	1	7.299423062777088E+003	-1.1910791E+000	-1.1921046E+000	-1.982269959877049E+002	-4.3525841E-002	37	6.4378786E-001	2.3630731E-001	-1.8358924E+000
2	0	0	1	7.299756462773024E+003	-1.1877449E+000	-1.1887906E+000	-1.938763697461191E+002	-1.0880246E-001	37	6.4229733E-001	2.3047839E-001	-1.8310878E+000
2	0	0	1	7.300089862768997E+003	-1.1844112E+000	-1.1845409E+000	-1.893210468682933E+002	-1.7259914E-001	37	6.4060128E-001	2.2425851E-001	-1.8251421E+000
2	0	0	1	7.300423162764971E+003	-1.1810782E+000	-1.1813086E+000	-1.847290096836218E+002	-2.3484738E-001	37	6.3876379E-001	2.1822198E-001	-1.8200724E+000
2	0	0	1	7.300756462760917E+003	-1.1777451E+000	-1.1784370E+000	-1.800505797140515E+002	-2.9554820E-001	37	6.3691306E-001	2.1217826E-001	-1.8153501E+000
2	0	0	1	7.301089862756889E+003	-1.1744113E+000	-1.1741894E+000	-1.754390532418997E+002	-3.5471869E-001	37	6.3517886E-001	2.0599869E-001	-1.8093684E+000
2	0	0	1	7.301423262752847E+003	-1.1710770E+000	-1.1713926E+000	-1.708999517122206E+002	-4.1236606E-001	37	6.3321656E-001	2.0019093E-001	-1.8046091E+000
2	0	0	1	7.301756662748812E+003	-1.1677431E+000	-1.1670653E+000	-1.664293548601815E+002	-4.6851280E-001	37	6.3170952E-001	1.9423392E-001	-1.7987747E+000
2	0	0	1	7.302090062744799E+003	-1.1644090E+000	-1.1655204E+000	-1.620352120617426E+002	-5.2318287E-001	37	6.3003939E-001	1.8885535E-001	-1.7955599E+000
2	0	0	1	7.302423462740742E+003	-1.1610751E+000	-1.1608496E+000	-1.577156469383654E+002	-5.7640487E-001	37	6.2821913E-001	1.8308415E-001	-1.7890687E+000
2	0	0	1	7.302756762736703E+003	-1.1577423E+000	-1.1575973E+000	-1.533687761698050E+002	-6.2815839E-001	37	6.2617821E-001	1.7753929E-001	-1.7837756E+000
2	0	0	1	7.303090062732692E+003	-1.1544089E+000	-1.1550955E+000	-1.496394034377490E+002	-6.7857534E-001	37	6.2478989E-001	1.7284779E-001	-1.7798853E+000
2	0	0	1	7.303423462728635E+003	-1.1510752E+000	-1.1509317E+000	-1.451120207719623E+002	-7.2762531E-001	37	6.2253278E-001	1.6701403E-001	-1.7734644E+000
2	0	0	1	7.303756862724600E+003	-1.1477411E+000	-1.1485718E+000	-1.406340335815923E+002	-7.7517068E-001	37	6.2071395E-001	1.6152829E-001	-1.7692858E+000
2	0	0	1	7.304090262720558E+003	-1.1444072E+000	-1.1436646E+000	-1.362728522249713E+002	-8.2124645E-001	37	6.1901212E-001	1.5585044E-001	-1.7626767E+000
2	0	0	1	7.304423662716523E+003	-1.1410731E+000	-1.1427860E+000	-1.319266073323961E+002	-8.6586940E-001	37	6.1737913E-001	1.5076388E-001	-1.7601652E+000
2	0	0	1	7.304757062712510E+003	-1.1377391E+000	-1.1394784E+000	-1.276189794884342E+002	-9.0905088E-001	37	6.1522865E-001	1.4541908E-001	-1.7547071E+000
2	0	0	1	7.305090462708453E+003	-1.1344053E+000	-1.1346886E+000	-1.233063635980598E+002	-9.5079315E-001	37	6.1347562E-001	1.3991433E-001	-1.7481642E+000
2	0	0	1	7.305423762704413E+003	-1.1310720E+000	-1.1327032E+000	-1.190256732120603E+002	-9.9109316E-001	37	6.1142594E-001	1.3482076E-001	-1.7441292E+000
2	0	0	1	7.305757062700402E+003	-1.1277391E+000	-1.1283470E+000	-1.147907454592207E+002	-1.0299718E+000	37	6.0979438E-001	1.2952380E-001	-1.7381414E+000
2	0	0	1	7.306090462696346E+003	-1.1244050E+000	-1.1243335E+000	-1.105672626994892E+002	-1.0674565E+000	37	6.0773784E-001	1.2431448E-001	-1.7320714E+000
2	0	0	1	7.306423862692311E+003	-1.1210710E+000	-1.1222297E+000	-1.063954950028362E+002	-1.1035372E+000	37	6.0587198E-001	1.1940018E-001	-1.7281017E+000
2	0	0	1	7.306757262688268E+003	-1.1177372E+000	-1.1181803E+000	-1.023151263819879E+002	-1.1382487E+000	37	6.0377288E-001	1.1440676E-001	-1.7219532E+000
2	0	0	1	7.307090662684233E+003	-1.1144031E+000	-1.1151954E+000	-9.815534951944295E+001	-1.1715852E+000	37	6.0192877E-001	1.0946240E-001	-1.7171242E+000
2	0	0	1	7.307424062680220E+003	-1.1110692E+000	-1.1109687E+000	-9.416841236201162E+001	-1.2035619E+000	37	5.9994614E-001	1.0461816E-001	-1.7109149E+000
2	0	0	1	7.307757362676159E+003	-1.1077361E+000	-1.1090454E+000	-9.025532807624336E+001	-1.2342139E+000	37	5.9813958E-001	1.0009725E-001	-1.7071850E+000
2	0	0	1	7.308090662672126E+003	-1.1044031E+000	-1.1042993E+000	-8.620549783875217E+001	-1.2635398E+000	37	5.9611315E-001	9.5196672E-002	-1.7004125E+000
2	0	0	1	7.308424062668113E+003	-1.1010692E+000	-1.1014916E+000	-8.223499249433911E+001	-1.2915330E+000	37	5.9396726E-001	9.0581149E-002	-1.6954589E+000
2	0	0	1	7.308757462664056E+003	-1.0977352E+000	-1.0999290E+000	-7.827413993038829E+001	-1.3182076E+000	37	5.9160393E-001	8.6095996E-002	-1.6915329E+000
2	0	0	1	7.309090862660021E+003	-1.0944012E+000	-1.0937653E+000	-7.426571350499785E+001	-1.3435549E+000	37	5.8955860E-001	8.1229255E-002	-1.6833239E+000
2	0	0	1	7.309424262655979E+003	-1.0910671E+000	-1.0922281E+000	-7.033838755879378E+001	-1.3675781E+000	37	5.8716094E-001	7.6825559E-002	-1.6793890E+000
2	0	0	1	7.309757662651944E+003	-1.0877330E+000	-1.0876759E+000	-6.648534631125767E+001	-1.3903054E+000	37	5.8525378E-001	7.2314508E-002	-1.6729298E+000
2	0	0	1	7.310090962647926E+003	-1.0844001E+000	-1.0845301E+000	-6.257395415728024E+001	-1.4117311E+000	37	5.8256137E-001	6.7863338E-002	-1.6670915E+000
2	0	0	1	7.310424362643869E+003	-1.0810661E+000	-1.0816792E+000	-5.873546703492832E+001	-1.4318717E+000	37	5.8013743E-001	6.3532934E-002	-1.6618166E+000
2	0	0	1	7.310757662639837E+003	-1.0777332E+000	-1.0777965E+000	-5.502577302977721E+001	-1.4507514E+000	37	5.7796812E-001	5.9306584E-002	-1.6557646E+000
2	0	0	1	7.311091062635824E+003	-1.0743992E+000	-1.0753512E+000	-5.134258271612957E+001	-1.4684047E+000	37	5.7546508E-001	5.5211309E-002	-1.6508163E+000
2	0	0	1	7.311424462631767E+003	-1.0710651E+000	-1.0715864E+000	-4.776438381201751E+001	-1.4848478E+000	37	5.7300895E-001	5.1183663E-002	-1.6445954E+000
2	0	0	1	7.311774562627543E+003	-1.0675641E+000	-1.0682981E+000	-4.414875706011389E+001	-1.5008363E+000	37	5.7048082E-001	4.7164034E-002	-1.6387789E+000
2	0	0	1	7.312124462623287E+003	-1.0640649E+000	-1.0641626E+000	-4.071249127886676E+001	-1.5156380E+000	38	5.6796134E-001	4.3324713E-002	-1.6321239E+000
2	0	0	1	7.312457862619252E+003	-1.0607312E+000	-1.0613775E+000	-3.750540673670309E+001	-1.5286040E+000	38	5.6550187E-001	3.9807394E-002	-1.6268795E+000
2	0	0	1	7.312791262615225E+003	-1.0573971E+000	-1.0580776E+000	-3.434434436051851E+001	-1.5405090E+000	38	5.6294447E-001	3.6338981E-002	-1.6210220E+000
2	0	0	1	7.313124662611197E+003	-1.0540631E+000	-1.0543115E+000	-3.124172305692525E+001	-1.5513710E+000	38	5.6023037E-001	3.2938510E-002	-1.6145419E+000
2	0	0	1	7.313458062607140E+003	-1.0507290E+000	-1.0512350E+000	-2.813040107910103E+001	-1.5611975E+000	38	5.5728728E-001	2.9571662E-002	-1.6085222E+000
2	0	0	1	7.313791462603105E+003	-1.0473950E+000	-1.0475125E+000	-2.504824400304923E+001	-1.5699918E+000	38	5.5415374E-001	2.6238350E-002	-1.6016662E+000
2	0	0	1	7.314124862599070E+003	-1.0440613E+000	-1.0440419E+000	-2.206169920665678E+001	-1.5777748E+000	38	5.5086428E-001	2.3033338E-002	-1.5949061E+000
2	0	0	1	7.314458162595023E+003	-1.0407280E+000	-1.0411037E+000	-1.913123196041414E+001	-1.5845691E+000	38	5.4738283E-001	1.9917596E-002	-1.5884866E+000
2	0	0	1	7.314791462590998E+003	-1.0373950E+000	-1.0377640E+000	-1.639654191016299E+001	-1.5904208E+000	38	5.4378766E-001	1.7015740E-002	-1.5815516E+000
2	0	0	1	7.315124862586963E+003	-1.0340614E+000	-1.0341122E+000	-1.388798578323792E+001	-1.5954026E+000	38	5.4013085E-001	1.4361735E-002	-1.5742431E+000
2	0	0	1	7.315458262582921E+003	-1.0307269E+000	-1.0310429E+000	-1.162845267073908E+001	-1.5995917E+000	38	5.3634715E-001	1.1989434E-002	-1.5673901E+000
2	0	0	1	7.315791662578908E+003	-1.0273932E+000	-1.0272715E+000	-9.569779107901439E+000	-1.6030632E+000	38	5.3238970E-001	9.8307617E-003	-1.5596611E+000
2	0	0	1	7.316125062574843E+003	-1.0240588E+000	-1.0244296E+000	-7.682964617062453E+000	-1.6058786E+000	38	5.2817595E-001	7.8706564E-003	-1.5526055E+000
2	0	0	1	7.316458462570816E+003	-1.0207251E+000	-1.0206381E+000	-5.862874127521103E+000	-1.6080775E+000	38	5.2336085E-001	5.9838728E-003	-1.5439990E+000
2	0	0	1	7.316808362566589E+003	-1.0172263E+000	-1.0166548E+000	-4.003873282602704E+000	-1.6097324E+000	38	5.1699561E-001	4.0705572E-003	-1.5336504E+000
2	0	0	1	7.317158462562336E+003	-1.0137249E+000	-1.0141690E+000	-2.181167176240219E+000	-1.6107730E+000	39	5.0920779E-001	2.2120720E-003	-1.5233767E+000
2	0	0	1	7.317491862558323E+003	-1.0103912E+000	-1.0117618E+000	-4.270499718485024E-001	-1.6111511E+000	39	4.9810469E-001	4.3207285E-004	-1.5098665E+000
2	1	0	1	7.317825262554259E+003	-1.0070571E+000	-1.0074716E+000	1.339996567147992E+000	-1.6109420E+000	39	4.8223495E-001	-1.3500084E-003	-1.4897065E+000
2	1	0	1	7.318158662550231E+003	-1.0037230E+000	-1.0042593E+000	3.121685261882097E+000	-1.6101418E+000	39	4.6071765E-001	-3.1349815E-003	-1.4649770E+000
2	1	0	1	7.318491962546206E+003	-1.0003903E+000	-1.0015661E+000	4.949212535929350E+000	-1.6087400E+000	39	4.3382019E-001	-4.9569635E-003	-1.4353862E+000
2	1	0	1	7.318825362542149E+003	-9.9705619E-001	-9.9844444E-001	6.832576627319412E+000	-1.6067189E+000	39	4.0301248E-001	-6.8219481E-003	-1.4014570E+000
2	1	0	1	7.319158662538124E+003	-9.9372327E-001	-9.9402076E-001	8.722130920584490E+000	-1.6040698E+000	39	3.7741211E-001	-8.6699789E-003	-1.3714329E+000
2	1	0	1	7.319508762533878E+003	-9.9022216E-001	-9.8894888E-001	1.061363144084976E+001	-1.6006114E+000	39	3.5836035E-001	-1.0496339E-002	-1.3473092E+000
2	1	0	1	7.319858862529647E+003	-9.8672110E-001	-9.8679996E-001	1.240439445261728E+001	-1.5965387E+000	38	3.4292960E-001	-1.2240656E-002	-1.3297296E+000
2	1	0	1	7.320192162525622E+003	-9.8338819E-001	-9.8193026E-001	1.417340343467961E+001	-1.5920531E+000	38	3.3113146E-001	-1.3917293E-002	-1.3130617E+000
2	1	0	1	7.320525462521568E+003	-9.8005491E-001	-9.7972214E-001	1.600910545067840E+001	-1.5869658E+000	38	3.2024309E-001	-1.5684474E-002	-1.2999653E+000
2	1	0	1	7.320858862517540E+003	-9.7672111E-001	-9.7805917E-001	1.776874894785556E+001	-1.5812788E+000	38	3.0769131E-001	-1.7378887E-002	-1.2857505E+000
2	1	0	1	7.321192262513498E+003	-9.7338736E-001	-9.7249508E-001	1.944998351477985E+001	-1.5750201E+000	38	2.9159406E-001	-1.8915012E-002	-1.2640891E+000
2	1	0	1	7.321525662509463E+003	-9.7005308E-001	-9.7068495E-001	2.140619267589091E+001	-1.5681551E+000	38	2.6894385E-001	-2.0778669E-002	-1.2396288E+000
2	1	0	1	7.321859062505449E+003	-9.6671909E-001	-9.6510816E-001	2.345095668961173E+001	-1.5606189E+000	38	2.3428604E-001	-2.2632709E-002	-1.1993942E+000
2	1	0	1	7.322192462501385E+003	-9.6338487E-001	-9.6270043E-001	2.489303209107370E+001	-1.5524979E+000	38	1.0303035E-001	-2.3964532E-002	-1.0657308E+000
2	1	0	1	7.322525862497358E+003	-9.6005118E-001	-9.6075177E-001	2.537940294279719E+001	-1.5440738E+000	38	-5.1578718E-001	-2.4383307E-002	-4.4496459E-001
2	1	0	1	7.322859162493332E+003	-9.5671821E-001	-9.5394236E-001	2.684258557907276E+001	-1.5353268E+000	38	-9.1137964E-001	-2.5606280E-002	-4.2562723E-002
2	1	0	1	7.323192462489278E+003	-9.5338511E-001	-9.5623374E-001	2.838187158686128E+001	-1.5260718E+000	38	-1.0255209E+000	-2.7139703E-002	6.9287181E-002
2	1	0	1	7.323442562486249E+003	-9.5088369E-001	-9.5480818E-001	2.950750426497564E+001	-1.5188345E+000	38	-1.1157101E+000	-2.8174005E-002	1.6090196E-001
2	1	0	1	7.323514462485386E+003	-9.4988370E-001	-9.5524359E-001	3.006732647235572E+001	-1.5166996E+000	38	-1.1377038E+000	-2.8721621E-002	1.8246019E-001